-0.4932776378707925 -0.32983284707540955
-0.5516422292962204 -0.30319842576584294
-0.6391891164343624 -0.31651563642062625
-0.6975537078597903 -0.30319842576584294
-0.6683714121470764 -0.2632467938014931
-0.6100068207216484 -0.2499295831467098
-0.5516422292962204 -0.2232951618371432
-0.4932776378707925 -0.30319842576584294
-0.5224599335835065 -0.3431500577301928
-0.6100068207216484 -0.46300495362324245
-0.6683714121470764 -0.5162737962423756
-0.7267360035725043 -0.489639374932809
-0.7851005949979323 -0.46300495362324245
-0.8142828907106463 -0.4230533216588926
-0.9310120735615022 -0.46300495362324245
-1.0185589606996441 -0.5162737962423756
-1.047741256412358 -0.489639374932809
-1.047741256412358 -0.46300495362324245
-0.9018297778487881 -0.43637053231367584
-0.8434651864233602 -0.4230533216588926
-0.9310120735615022 -0.4763221642780257
-1.047741256412358 -0.43637053231367584
-0.9601943692742162 -0.4230533216588926
-0.9018297778487881 -0.4230533216588926
-0.7851005949979323 -0.4097361110041093
-0.7559182992852183 -0.4230533216588926
-0.8726474821360742 -0.4763221642780257
-0.9310120735615022 -0.5162737962423756
-1.0185589606996441 -0.5162737962423756
-0.8726474821360742 -0.4230533216588926
-0.7559182992852183 -0.3697844790397594
-0.7559182992852183 -0.396418900349326
-0.8142828907106463 -0.4230533216588926
-0.9310120735615022 -0.489639374932809
-1.0185589606996441 -0.46300495362324245
-0.9310120735615022 -0.396418900349326
-0.9018297778487881 -0.3697844790397594
-0.9018297778487881 -0.38310168969454267
-0.9018297778487881 -0.44968774296845915
-0.8726474821360742 -0.5295910068971589
-0.8726474821360742 -0.5695426388615088
-0.9893766649869301 -0.44968774296845915
-0.8726474821360742 -0.4097361110041093
-0.8142828907106463 -0.32983284707540955
-0.7267360035725043 -0.30319842576584294
-0.6975537078597903 -0.2765640044562764
-0.7267360035725043 -0.14339189790844345
-0.5808245250089344 0.01641462994895603
-0.23063697645636666 0.2161727897707054
-0.02636090646736881 0.40261373893767144
0.11955057209620108 0.6023718987594208
0.41137352922334086 0.8154472692359535
0.5281027120741968 1.161694746260319
0.5572850077869108 1.6544315404873007
0.6156495992123387 2.160485545369066
0.7323787820631946 2.666539550250831
0.8782902606267645 3.0527386592395462
0.9658371477649065 3.4655721895378284
0.7907433734886226 3.8384540878717606
0.4989204163614828 4.344508092753525
0.5281027120741968 4.917148150909207
0.7031964863504807 5.409884945136189
1.1701132177539044 5.716180790196204
1.9288529062844677 5.716180790196204
2.7459571862404593 5.329981681207489
3.329603100494739 4.357825303408309
3.329603100494739 3.0127870272751966
2.5416811162514614 1.667748751142084
0.8199256692013366 0.8420816905455201
-1.222835030688642 0.40261373893767144
-2.448491450622629 0.12295231518722236
-2.7403144077497688 -0.050171423324960426
-2.652767520611627 -0.17002631921801004
-2.360944563484487 -0.30319842576584294
-2.0983039020700613 -0.4763221642780257
-1.7772986492302076 -0.5429082175519422
-1.3979288049649259 -0.5695426388615088
-1.0185589606996441 -0.5562254282067255
-0.9018297778487881 -0.5295910068971589
-0.8434651864233602 -0.5828598495162921
-0.8142828907106463 -0.6494459027902085
-0.8726474821360742 -0.716031956064125
-0.8726474821360742 -0.7293491667189083
-0.8726474821360742 -0.7426663773736916
-0.7851005949979323 -0.7559835880284749
-0.8142828907106463 -0.7826180093380414
-0.8142828907106463 -0.7559835880284749
-0.8434651864233602 -0.809252430647608
-0.8142828907106463 -0.7959352199928247
-0.7267360035725043 -0.7959352199928247
-0.6391891164343624 -0.7826180093380414
-0.6391891164343624 -0.8492040626119579
-0.6975537078597903 -0.8891556945763077
-0.8142828907106463 -0.902472905231091
-0.7559182992852183 -0.8758384839215244
-0.6975537078597903 -0.8225696413023913
-0.6391891164343624 -0.7693007986832581
-0.5516422292962204 -0.7959352199928247
-0.6100068207216484 -0.8758384839215244
-0.6391891164343624 -0.9557417478502241
-0.6391891164343624 -0.9823761691597908
-0.5808245250089344 -0.902472905231091
-0.4640953421580785 -0.8225696413023913
-0.4349130464453645 -0.8625212732667411
-0.5224599335835065 -0.9157901158858743
-0.5224599335835065 -1.0622794330884906
-0.5808245250089344 -1.1155482757076236
-0.6391891164343624 -1.088913854398057
-0.5808245250089344 -1.035645011778924
-0.5516422292962204 -0.9956933798145741
-0.6100068207216484 -1.035645011778924
-0.6975537078597903 -1.0622794330884906
-0.6683714121470764 -1.035645011778924
-0.6391891164343624 -1.0489622224337072
-0.5808245250089344 -1.0090105904693574
-0.4640953421580785 -1.0489622224337072
-0.5808245250089344 -1.0755966437432738
-0.6100068207216484 -1.088913854398057
-0.6391891164343624 -1.0755966437432738
-0.5516422292962204 -1.0622794330884906
-0.4057307507326505 -1.0223278011241406
-0.4057307507326505 -1.0489622224337072
-0.4932776378707925 -1.088913854398057
-0.5224599335835065 -1.1155482757076236
-0.6100068207216484 -1.1155482757076236
-0.4640953421580785 -1.088913854398057
-0.3181838635945086 -0.9956933798145741
-0.3181838635945086 -1.0622794330884906
-0.37654845501993656 -1.0755966437432738
-0.4057307507326505 -1.1155482757076236
-0.3181838635945086 -1.1554999076719736
-0.2890015678817946 -1.1022310650528404
-0.23063697645636666 -1.088913854398057
-0.2014546807436527 -1.0755966437432738
-0.1722723850309387 -1.1022310650528404
-0.25981927216908063 -1.1688171183267568
-0.23063697645636666 -1.1954515396363234
-0.1722723850309387 -1.1688171183267568
-0.14309008931822473 -1.088913854398057
-0.08472549789279676 -1.1022310650528404
-0.05554320218008279 -1.1022310650528404
-0.11390779360551075 -1.1688171183267568
-0.05554320218008279 -1.1554999076719736
0.061185980670773125 -1.1554999076719736
0.14873286780891506 -1.1022310650528404
0.14873286780891506 -1.0755966437432738
0.11955057209620108 -1.0223278011241406
0.17791516352162903 -1.0223278011241406
0.29464434637248493 -1.0090105904693574
0.32382664208519896 -0.9690589585050075
0.5281027120741968 -0.8758384839215244
0.6448318949250527 -0.8225696413023913
0.6156495992123387 -0.7826180093380414
0.5572850077869108 -0.7826180093380414
0.6448318949250527 -0.676080324099775
0.7031964863504807 -0.6228114814806419
0.8199256692013366 -0.4763221642780257
1.0242017391903344 -0.43637053231367584
1.0242017391903344 -0.4097361110041093
0.9366548520521925 -0.3697844790397594
0.9658371477649065 -0.32983284707540955
1.0533840349030483 -0.2232951618371432
1.0242017391903344 -0.15670910856322676
1.0242017391903344 -0.14339189790844345
0.9658371477649065 -0.13007468725366017
0.8491079649140506 -0.14339189790844345
0.8199256692013366 -0.13007468725366017
0.7615610777759086 -0.09012305528931029
0.8199256692013366 -0.050171423324960426
0.7031964863504807 -0.076805844634527
0.5572850077869108 -0.11675747659887688
0.44055582493605483 -0.15670910856322676
0.32382664208519896 -0.11675747659887688
0.236279754947057 -0.10344026594409358
0.3530089377979129 -0.10344026594409358
0.3530089377979129 -0.13007468725366017
0.17791516352162903 -0.18334352987279334
-0.08472549789279676 -0.2366123724919265
-0.1722723850309387 -0.2632467938014931
-0.05554320218008279 -0.19666074052757662
-0.08472549789279676 -0.2099779511823599
-0.02636090646736881 -0.2366123724919265
-0.1722723850309387 -0.2765640044562764
-0.1722723850309387 -0.28988121511105963
-0.2890015678817946 -0.2499295831467098
-0.25981927216908063 -0.2232951618371432
-0.08472549789279676 -0.2099779511823599
-0.11390779360551075 -0.2099779511823599
-0.1722723850309387 -0.2499295831467098
-0.25981927216908063 -0.2632467938014931
-0.2890015678817946 -0.2765640044562764
-0.3181838635945086 -0.2232951618371432
-0.25981927216908063 -0.2232951618371432
-0.2890015678817946 -0.2765640044562764
-0.25981927216908063 -0.3431500577301928
-0.3473661593072226 -0.32983284707540955
-0.4932776378707925 -0.3431500577301928
-0.3473661593072226 -0.31651563642062625
-0.3473661593072226 -0.28988121511105963
-0.3473661593072226 -0.28988121511105963
-0.3473661593072226 -0.3431500577301928
-0.4057307507326505 -0.38310168969454267
-0.4932776378707925 -0.3697844790397594
-0.4349130464453645 -0.32983284707540955
-0.4349130464453645 -0.30319842576584294
-0.3473661593072226 -0.32983284707540955
-0.3473661593072226 -0.38310168969454267
-0.4349130464453645 -0.38310168969454267
-0.4932776378707925 -0.38310168969454267
-0.4057307507326505 -0.31651563642062625
-0.37654845501993656 -0.31651563642062625
-0.4057307507326505 -0.3564672683849761
-0.4349130464453645 -0.38310168969454267
-0.5516422292962204 -0.4230533216588926
-0.6100068207216484 -0.43637053231367584
-0.5224599335835065 -0.3564672683849761
-0.4057307507326505 -0.32983284707540955
-0.3181838635945086 -0.3431500577301928
-0.4057307507326505 -0.3697844790397594
-0.5224599335835065 -0.4230533216588926
-0.5224599335835065 -0.4097361110041093
-0.4349130464453645 -0.4097361110041093
-0.4057307507326505 -0.3564672683849761
-0.3473661593072226 -0.38310168969454267
-0.4932776378707925 -0.396418900349326
-0.5808245250089344 -0.4230533216588926
-0.5808245250089344 -0.396418900349326
-0.4640953421580785 -0.3564672683849761
-0.4349130464453645 -0.3431500577301928
-0.4349130464453645 -0.3431500577301928
-0.37654845501993656 -0.3697844790397594
-0.4640953421580785 -0.396418900349326
-0.4349130464453645 -0.38310168969454267
-0.3473661593072226 -0.32983284707540955
-0.2890015678817946 -0.28988121511105963
-0.2890015678817946 -0.28988121511105963
-0.3473661593072226 -0.31651563642062625
-0.4932776378707925 -0.3431500577301928
-0.5224599335835065 -0.32983284707540955
-0.5224599335835065 -0.30319842576584294
-0.4349130464453645 -0.30319842576584294
-0.4057307507326505 -0.3564672683849761
-0.4349130464453645 -0.3564672683849761
-0.4932776378707925 -0.3564672683849761
-0.6100068207216484 -0.31651563642062625
-0.5224599335835065 -0.2765640044562764
-0.3181838635945086 -0.2765640044562764
-0.4057307507326505 -0.28988121511105963
-0.4349130464453645 -0.31651563642062625
-0.5224599335835065 -0.31651563642062625
-0.5808245250089344 -0.30319842576584294
-0.4640953421580785 -0.2366123724919265
-0.4057307507326505 -0.2499295831467098
-0.4349130464453645 -0.31651563642062625
-0.5224599335835065 -0.3697844790397594
-0.5808245250089344 -0.38310168969454267
-0.6100068207216484 -0.38310168969454267
-0.5516422292962204 -0.32983284707540955
-0.4640953421580785 -0.30319842576584294
-0.4057307507326505 -0.28988121511105963
-0.4932776378707925 -0.32983284707540955
-0.5516422292962204 -0.3431500577301928
-0.5808245250089344 -0.3431500577301928
-0.5224599335835065 -0.3431500577301928
-0.4349130464453645 -0.28988121511105963
-0.4057307507326505 -0.2765640044562764
-0.4932776378707925 -0.3697844790397594
-0.6100068207216484 -0.396418900349326
-0.5808245250089344 -0.3697844790397594
-0.4932776378707925 -0.32983284707540955
-0.5224599335835065 -0.28988121511105963
-0.4932776378707925 -0.31651563642062625
-0.6100068207216484 -0.3564672683849761
-0.6391891164343624 -0.38310168969454267
-0.7267360035725043 -0.3564672683849761
-0.6391891164343624 -0.28988121511105963
-0.5808245250089344 -0.28988121511105963
-0.5224599335835065 -0.2765640044562764
-0.5808245250089344 -0.32983284707540955
-0.6100068207216484 -0.32983284707540955
-0.6683714121470764 -0.3431500577301928
-0.5224599335835065 -0.3564672683849761
-0.5516422292962204 -0.28988121511105963
-0.4932776378707925 -0.31651563642062625
-0.4932776378707925 -0.31651563642062625
-0.6391891164343624 -0.3431500577301928
-0.6683714121470764 -0.32983284707540955
-0.6391891164343624 -0.2765640044562764
-0.6100068207216484 -0.2232951618371432
-0.5516422292962204 -0.2232951618371432
-0.5808245250089344 -0.28988121511105963
-0.6100068207216484 -0.396418900349326
-0.6975537078597903 -0.3564672683849761
-0.5808245250089344 -0.32983284707540955
-0.5224599335835065 -0.2632467938014931
-0.5516422292962204 -0.31651563642062625
-0.5516422292962204 -0.3564672683849761
-0.5808245250089344 -0.38310168969454267
-0.6100068207216484 -0.396418900349326
-0.6100068207216484 -0.3564672683849761
-0.4640953421580785 -0.28988121511105963
-0.4349130464453645 -0.2765640044562764
-0.4932776378707925 -0.30319842576584294
-0.5808245250089344 -0.31651563642062625
-0.5224599335835065 -0.2765640044562764
-0.4640953421580785 -0.2232951618371432
-0.3473661593072226 -0.19666074052757662
-0.25981927216908063 -0.2232951618371432
-0.3181838635945086 -0.19666074052757662
-0.4057307507326505 -0.2366123724919265
-0.3181838635945086 -0.14339189790844345
-0.2014546807436527 -0.11675747659887688
-0.11390779360551075 -0.076805844634527
-0.05554320218008279 -0.10344026594409358
-0.02636090646736881 -0.19666074052757662
-0.08472549789279676 -0.19666074052757662
-0.14309008931822473 -0.2099779511823599
-0.08472549789279676 -0.18334352987279334
-0.11390779360551075 -0.13007468725366017
-0.2014546807436527 -0.15670910856322676
-0.25981927216908063 -0.18334352987279334
-0.3181838635945086 -0.2099779511823599
-0.37654845501993656 -0.2099779511823599
-0.37654845501993656 -0.17002631921801004
-0.3473661593072226 -0.13007468725366017
-0.37654845501993656 -0.13007468725366017
-0.37654845501993656 -0.18334352987279334
-0.4349130464453645 -0.14339189790844345
-0.5224599335835065 -0.13007468725366017
-0.3181838635945086 -0.13007468725366017
-0.25981927216908063 -0.11675747659887688
-0.2014546807436527 -0.11675747659887688
-0.25981927216908063 -0.2099779511823599
-0.4349130464453645 -0.2366123724919265
-0.4349130464453645 -0.2232951618371432
-0.4932776378707925 -0.2232951618371432
-0.4932776378707925 -0.2366123724919265
-0.5808245250089344 -0.2632467938014931
-0.6391891164343624 -0.2499295831467098
-0.6683714121470764 -0.30319842576584294
-0.6975537078597903 -0.28988121511105963
-0.7267360035725043 -0.2366123724919265
-0.6100068207216484 -0.2499295831467098
-0.5516422292962204 -0.28988121511105963
-0.6391891164343624 -0.31651563642062625
-0.6975537078597903 -0.3431500577301928
-0.7851005949979323 -0.31651563642062625
-0.7559182992852183 -0.2765640044562764
-0.6683714121470764 -0.2632467938014931
-0.5808245250089344 -0.2765640044562764
-0.7267360035725043 -0.3431500577301928
-0.7851005949979323 -0.3564672683849761
-0.7851005949979323 -0.31651563642062625
-0.6975537078597903 -0.30319842576584294
-0.6391891164343624 -0.2632467938014931
-0.5808245250089344 -0.28988121511105963
-0.6975537078597903 -0.31651563642062625
-0.7267360035725043 -0.3431500577301928
-0.7851005949979323 -0.31651563642062625
-0.7267360035725043 -0.2366123724919265
-0.6683714121470764 -0.2232951618371432
-0.5516422292962204 -0.2232951618371432
-0.5808245250089344 -0.28988121511105963
-0.6100068207216484 -0.2632467938014931
-0.6391891164343624 -0.19666074052757662
-0.5224599335835065 -0.10344026594409358
-0.3473661593072226 0.08300068322287249
-0.08472549789279676 0.28275884304462184
0.0903682763834871 0.4558825815568046
0.26546205065977097 0.7089095839976871
0.44055582493605483 1.201646378224669
0.46973812064876885 1.8142380683447004
0.6448318949250527 2.533367443702998
0.9950194434776205 3.1193247125134627
1.1409309220411903 3.6253787173952277
0.9658371477649065 4.11811551162221
0.9366548520521925 4.757341623051808
1.1117486263284764 5.423202155790972
1.782941427720898 5.796084054124904
2.804321777665887 5.463153787755322
3.7089729447600206 4.264604828824826
3.6506083533345928 2.5600018650125644
2.3374050462624636 1.028522639712486
-0.1722723850309387 0.336027685663755
-2.1274861977827753 0.08300068322287249
-2.7694967034624827 -0.10344026594409358
-2.477673746335343 -0.2499295831467098
-1.8940278320810635 -0.31651563642062625
-1.310381917826784 -0.3697844790397594
-0.8434651864233602 -0.3697844790397594
-0.5808245250089344 -0.396418900349326
-0.6100068207216484 -0.5029565855875923
-0.5808245250089344 -0.6361286921354252
-0.6683714121470764 -0.7027147454093416
-0.6975537078597903 -0.6893975347545583
-0.6683714121470764 -0.6627631134449918
-0.4932776378707925 -0.676080324099775
-0.5224599335835065 -0.716031956064125
-0.4640953421580785 -0.7293491667189083
-0.5224599335835065 -0.7826180093380414
-0.4057307507326505 -0.7693007986832581
-0.3473661593072226 -0.7426663773736916
-0.2014546807436527 -0.6893975347545583
-0.2890015678817946 -0.7426663773736916
-0.3473661593072226 -0.809252430647608
-0.4640953421580785 -0.8225696413023913
-0.3473661593072226 -0.8492040626119579
-0.3473661593072226 -0.8225696413023913
-0.25981927216908063 -0.7959352199928247
-0.25981927216908063 -0.809252430647608
-0.3181838635945086 -0.8625212732667411
-0.4349130464453645 -0.9291073265406576
-0.3473661593072226 -0.9291073265406576
-0.37654845501993656 -0.902472905231091
-0.2014546807436527 -0.9291073265406576
-0.25981927216908063 -0.942424537195441
-0.3473661593072226 -0.9690589585050075
-0.37654845501993656 -1.0223278011241406
-0.3181838635945086 -0.9956933798145741
-0.2890015678817946 -0.9690589585050075
-0.2014546807436527 -0.9291073265406576
-0.23063697645636666 -0.9557417478502241
-0.25981927216908063 -0.9956933798145741
-0.2890015678817946 -1.0090105904693574
-0.25981927216908063 -1.0223278011241406
-0.2014546807436527 -1.035645011778924
-0.1722723850309387 -1.0489622224337072
-0.23063697645636666 -1.035645011778924
-0.23063697645636666 -1.1022310650528404
-0.37654845501993656 -1.1155482757076236
-0.3473661593072226 -1.088913854398057
-0.2890015678817946 -1.0622794330884906
-0.23063697645636666 -1.0489622224337072
-0.1722723850309387 -1.088913854398057
-0.2014546807436527 -1.1421826970171902
-0.2014546807436527 -1.1688171183267568
-0.25981927216908063 -1.128865486362407
-0.1722723850309387 -1.128865486362407
-0.08472549789279676 -1.088913854398057
-0.11390779360551075 -1.1022310650528404
-0.08472549789279676 -1.18213432898154
-0.14309008931822473 -1.18213432898154
-0.11390779360551075 -1.18213432898154
-0.08472549789279676 -1.1688171183267568
-0.05554320218008279 -1.128865486362407
0.0028213892453451675 -1.1554999076719736
0.0028213892453451675 -1.18213432898154
-0.08472549789279676 -1.22208596094589
0.0028213892453451675 -1.2087687502911066
0.0028213892453451675 -1.18213432898154
0.17791516352162903 -1.128865486362407
0.17791516352162903 -1.1421826970171902
0.17791516352162903 -1.1554999076719736
0.061185980670773125 -1.1421826970171902
0.20709745923434303 -1.1421826970171902
0.32382664208519896 -1.1022310650528404
0.3530089377979129 -1.088913854398057
0.41137352922334086 -1.1022310650528404
0.29464434637248493 -1.0622794330884906
0.41137352922334086 -1.035645011778924
0.41137352922334086 -0.9823761691597908
0.6156495992123387 -0.9291073265406576
0.7031964863504807 -0.8625212732667411
0.7907433734886226 -0.8625212732667411
0.7615610777759086 -0.8358868519571746
0.6448318949250527 -0.8358868519571746
0.6740141906377667 -0.716031956064125
0.7907433734886226 -0.6627631134449918
0.9074725563394785 -0.5828598495162921
0.9950194434776205 -0.5029565855875923
0.8782902606267645 -0.5162737962423756
0.8199256692013366 -0.4763221642780257
0.8491079649140506 -0.4230533216588926
0.9074725563394785 -0.3564672683849761
0.9950194434776205 -0.32983284707540955
0.9366548520521925 -0.32983284707540955
0.8199256692013366 -0.3564672683849761
0.6448318949250527 -0.3697844790397594
0.6156495992123387 -0.3697844790397594
0.5864673034996247 -0.3564672683849761
0.6448318949250527 -0.31651563642062625
0.6448318949250527 -0.3431500577301928
0.4989204163614828 -0.38310168969454267
0.3530089377979129 -0.43637053231367584
0.29464434637248493 -0.396418900349326
0.32382664208519896 -0.3564672683849761
0.3530089377979129 -0.3697844790397594
0.32382664208519896 -0.396418900349326
0.236279754947057 -0.44968774296845915
0.11955057209620108 -0.489639374932809
0.0903682763834871 -0.4763221642780257
0.11955057209620108 -0.4230533216588926
0.29464434637248493 -0.4230533216588926
0.17791516352162903 -0.43637053231367584
-0.02636090646736881 -0.44968774296845915
-0.2890015678817946 -0.489639374932809
-0.3181838635945086 -0.5162737962423756
-0.25981927216908063 -0.4763221642780257
-0.2014546807436527 -0.5162737962423756
-0.08472549789279676 -0.5295910068971589
-0.14309008931822473 -0.5961770601710753
-0.3473661593072226 -0.6228114814806419
-0.3473661593072226 -0.6361286921354252
-0.23063697645636666 -0.6094942708258586
-0.2014546807436527 -0.5562254282067255
-0.25981927216908063 -0.5828598495162921
-0.23063697645636666 -0.6361286921354252
-0.3473661593072226 -0.6494459027902085
-0.37654845501993656 -0.6494459027902085
-0.3181838635945086 -0.6094942708258586
-0.25981927216908063 -0.5828598495162921
-0.2890015678817946 -0.5562254282067255
-0.2890015678817946 -0.6228114814806419
-0.37654845501993656 -0.6893975347545583
-0.37654845501993656 -0.676080324099775
-0.2890015678817946 -0.7027147454093416
-0.23063697645636666 -0.6228114814806419
-0.2014546807436527 -0.7027147454093416
-0.3181838635945086 -0.7293491667189083
-0.4349130464453645 -0.716031956064125
-0.4932776378707925 -0.7293491667189083
-0.37654845501993656 -0.7293491667189083
-0.3473661593072226 -0.7027147454093416
-0.3181838635945086 -0.7426663773736916
-0.3181838635945086 -0.7559835880284749
-0.4057307507326505 -0.7959352199928247
-0.4349130464453645 -0.7559835880284749
-0.3473661593072226 -0.716031956064125
-0.37654845501993656 -0.7027147454093416
-0.25981927216908063 -0.7293491667189083
-0.3473661593072226 -0.7559835880284749
-0.4057307507326505 -0.809252430647608
-0.4640953421580785 -0.7959352199928247
-0.37654845501993656 -0.7693007986832581
-0.25981927216908063 -0.716031956064125
-0.2890015678817946 -0.7559835880284749
-0.2890015678817946 -0.7826180093380414
-0.5224599335835065 -0.7959352199928247
-0.5808245250089344 -0.7693007986832581
-0.3473661593072226 -0.716031956064125
-0.1722723850309387 -0.716031956064125
-0.25981927216908063 -0.7293491667189083
-0.25981927216908063 -0.7826180093380414
-0.3181838635945086 -0.809252430647608
-0.4057307507326505 -0.7959352199928247
-0.2890015678817946 -0.7426663773736916
-0.1722723850309387 -0.7027147454093416
-0.23063697645636666 -0.7027147454093416
-0.25981927216908063 -0.716031956064125
-0.37654845501993656 -0.7559835880284749
-0.37654845501993656 -0.7559835880284749
-0.3473661593072226 -0.7027147454093416
-0.3473661593072226 -0.676080324099775
-0.37654845501993656 -0.716031956064125
-0.4057307507326505 -0.7693007986832581
-0.4932776378707925 -0.7826180093380414
-0.4640953421580785 -0.7693007986832581
-0.4057307507326505 -0.7693007986832581
-0.3473661593072226 -0.7293491667189083
-0.37654845501993656 -0.7559835880284749
-0.5224599335835065 -0.7693007986832581
-0.6100068207216484 -0.809252430647608
-0.6100068207216484 -0.7959352199928247
-0.4932776378707925 -0.7693007986832581
-0.4057307507326505 -0.7693007986832581
-0.4932776378707925 -0.7826180093380414
-0.5516422292962204 -0.809252430647608
-0.6391891164343624 -0.8358868519571746
-0.5224599335835065 -0.8492040626119579
-0.4932776378707925 -0.7826180093380414
-0.4640953421580785 -0.809252430647608
-0.4349130464453645 -0.8225696413023913
-0.5224599335835065 -0.8891556945763077
-0.5516422292962204 -0.9291073265406576
-0.6100068207216484 -0.8891556945763077
-0.5516422292962204 -0.8225696413023913
-0.5516422292962204 -0.809252430647608
-0.5516422292962204 -0.8358868519571746
-0.5516422292962204 -0.8625212732667411
-0.6391891164343624 -0.8891556945763077
-0.6683714121470764 -0.8492040626119579
-0.6683714121470764 -0.8358868519571746
-0.6975537078597903 -0.8225696413023913
-0.7267360035725043 -0.8492040626119579
-0.7267360035725043 -0.902472905231091
-0.8142828907106463 -0.942424537195441
-0.8434651864233602 -0.9157901158858743
-0.7267360035725043 -0.8891556945763077
-0.8434651864233602 -0.8758384839215244
-0.7851005949979323 -0.9157901158858743
-0.7851005949979323 -0.9291073265406576
-0.9601943692742162 -0.942424537195441
-0.8142828907106463 -0.902472905231091
-0.7559182992852183 -0.8758384839215244
-0.6975537078597903 -0.8625212732667411
-0.7851005949979323 -0.902472905231091
-0.7851005949979323 -0.902472905231091
-0.8142828907106463 -0.902472905231091
-0.8726474821360742 -0.902472905231091
-0.7559182992852183 -0.8758384839215244
-0.6391891164343624 -0.8625212732667411
-0.6391891164343624 -0.8891556945763077
-0.7851005949979323 -0.942424537195441
-0.8726474821360742 -0.9690589585050075
-0.9018297778487881 -0.942424537195441
-0.8434651864233602 -0.942424537195441
-0.7267360035725043 -0.902472905231091
-0.7559182992852183 -0.942424537195441
-0.8726474821360742 -0.9956933798145741
-0.9310120735615022 -0.9823761691597908
-0.9893766649869301 -0.942424537195441
-0.8142828907106463 -0.9157901158858743
-0.8434651864233602 -0.902472905231091
-0.8434651864233602 -0.902472905231091
-0.9018297778487881 -0.9557417478502241
-0.9601943692742162 -0.9823761691597908
-1.076923552125072 -0.9690589585050075
-1.0185589606996441 -0.9157901158858743
-0.9601943692742162 -0.9157901158858743
-0.9601943692742162 -0.9291073265406576
-0.9601943692742162 -0.9557417478502241
-0.9601943692742162 -0.9956933798145741
-0.9601943692742162 -0.9557417478502241
-0.8142828907106463 -0.9291073265406576
-0.6975537078597903 -0.8492040626119579
-0.6100068207216484 -0.8891556945763077
-0.7559182992852183 -0.902472905231091
-0.8142828907106463 -0.9291073265406576
-0.7559182992852183 -0.902472905231091
-0.7267360035725043 -0.8492040626119579
-0.6975537078597903 -0.8225696413023913
-0.6975537078597903 -0.8358868519571746
-0.7559182992852183 -0.8625212732667411
-0.7559182992852183 -0.902472905231091
-0.7267360035725043 -0.8625212732667411
-0.6391891164343624 -0.7693007986832581
-0.5516422292962204 -0.7693007986832581
-0.5516422292962204 -0.7559835880284749
-0.5808245250089344 -0.7693007986832581
-0.7267360035725043 -0.8358868519571746
-0.7267360035725043 -0.809252430647608
-0.6975537078597903 -0.8225696413023913
-0.7267360035725043 -0.8358868519571746
-0.7267360035725043 -0.8625212732667411
-0.8726474821360742 -0.8891556945763077
-1.0185589606996441 -0.9157901158858743
-1.047741256412358 -0.902472905231091
-0.9893766649869301 -0.8625212732667411
-0.9018297778487881 -0.7959352199928247
-0.8142828907106463 -0.8492040626119579
-0.8726474821360742 -0.8625212732667411
-0.9018297778487881 -0.8891556945763077
-0.9018297778487881 -0.8358868519571746
-0.7851005949979323 -0.809252430647608
-0.6683714121470764 -0.7959352199928247
-0.6683714121470764 -0.8625212732667411
-0.7559182992852183 -0.9157901158858743
-0.8142828907106463 -0.9956933798145741
-0.9601943692742162 -0.9956933798145741
-1.047741256412358 -0.9690589585050075
-1.076923552125072 -0.9291073265406576
-1.164470439263214 -0.9690589585050075
-1.222835030688642 -0.9956933798145741
-1.28119962211407 -1.0223278011241406
-1.2520173264013559 -0.9956933798145741
-1.310381917826784 -0.942424537195441
-1.164470439263214 -0.9690589585050075
-1.193652734975928 -0.9956933798145741
-1.2520173264013559 -1.0223278011241406
-1.28119962211407 -1.0489622224337072
-1.310381917826784 -1.0090105904693574
-1.310381917826784 -0.942424537195441
-1.164470439263214 -0.9291073265406576
-1.1352881435505 -0.9291073265406576
-1.193652734975928 -0.9956933798145741
-1.310381917826784 -1.0223278011241406
-1.3395642135394978 -1.0090105904693574
-1.3395642135394978 -0.9956933798145741
-1.222835030688642 -0.9823761691597908
-1.2520173264013559 -0.9557417478502241
-1.2520173264013559 -1.0090105904693574
-1.28119962211407 -1.035645011778924
-1.310381917826784 -0.9956933798145741
-1.310381917826784 -0.9690589585050075
-1.193652734975928 -0.9157901158858743
-1.076923552125072 -0.9291073265406576
-1.164470439263214 -0.9823761691597908
-1.310381917826784 -0.9690589585050075
-1.222835030688642 -0.942424537195441
-1.076923552125072 -0.8358868519571746
-1.047741256412358 -0.809252430647608
-1.0185589606996441 -0.7959352199928247
-1.1352881435505 -0.7693007986832581
-1.1352881435505 -0.7426663773736916
-1.076923552125072 -0.6228114814806419
-0.9310120735615022 -0.44968774296845915
-0.5808245250089344 -0.2366123724919265
-0.4057307507326505 -0.09012305528931029
-0.23063697645636666 0.0696834725680892
-0.14309008931822473 0.29607605369940515
-0.14309008931822473 0.6156891094142041
-0.2014546807436527 1.0152054290577028
-0.14309008931822473 1.4413561700107682
-0.11390779360551075 1.8275552789994836
-0.08472549789279676 2.1871199666786323
-0.05554320218008279 2.533367443702998
-0.1722723850309387 2.8796149207273634
-0.4932776378707925 3.2524968190612955
-0.7267360035725043 3.6386959280500113
-0.8142828907106463 4.064846669003076
-0.7267360035725043 4.504314620610925
-0.4057307507326505 4.890513729599641
0.17791516352162903 4.997051414837907
1.0825663306157625 4.8106104656709405
1.8704883148590399 4.198018775550909
2.2790404548370353 3.1193247125134627
2.2206758634116075 1.7742864363803503
1.3452069920301881 0.7222267946524704
-0.23063697645636666 0.09631789387765577
-1.7189340578047796 -0.2099779511823599
-2.506856042048057 -0.43637053231367584
-2.7403144077497688 -0.5961770601710753
-2.594402929186199 -0.7293491667189083
-2.390126859197201 -0.7959352199928247
-1.9815747192192055 -0.8358868519571746
-1.5730225792412098 -0.8758384839215244
-1.164470439263214 -0.8891556945763077
-1.076923552125072 -0.9291073265406576
-1.076923552125072 -1.0223278011241406
-1.164470439263214 -1.0489622224337072
-1.1352881435505 -1.0622794330884906
-1.106105847837786 -1.0622794330884906
-1.047741256412358 -1.0755966437432738
-1.0185589606996441 -1.1421826970171902
-1.047741256412358 -1.1688171183267568
-1.1352881435505 -1.18213432898154
-1.1352881435505 -1.18213432898154
-1.0185589606996441 -1.1954515396363234
-0.9018297778487881 -1.1688171183267568
-0.8726474821360742 -1.18213432898154
-0.9018297778487881 -1.22208596094589
-0.8726474821360742 -1.2620375929102399
-0.8726474821360742 -1.2354031716006733
-0.8726474821360742 -1.2087687502911066
-0.7559182992852183 -1.18213432898154
-0.7851005949979323 -1.1954515396363234
-0.8142828907106463 -1.2487203822554567
-0.8726474821360742 -1.2487203822554567
-0.9893766649869301 -1.22208596094589
-0.7851005949979323 -1.2087687502911066
-0.6683714121470764 -1.18213432898154
-0.6683714121470764 -1.1954515396363234
-0.7267360035725043 -1.2620375929102399
-0.8434651864233602 -1.315306435529373
-0.8142828907106463 -1.3019892248745897
-0.7559182992852183 -1.2620375929102399
-0.6683714121470764 -1.22208596094589
-0.6100068207216484 -1.2886720142198065
-0.6683714121470764 -1.315306435529373
-0.7559182992852183 -1.3286236461841563
-0.7267360035725043 -1.2886720142198065
-0.7267360035725043 -1.22208596094589
-0.6100068207216484 -1.2354031716006733
-0.5516422292962204 -1.2620375929102399
-0.5808245250089344 -1.355258067493723
-0.6975537078597903 -1.368575278148506
-0.6975537078597903 -1.3419408568389397
-0.5808245250089344 -1.3286236461841563
-0.4932776378707925 -1.2487203822554567
-0.5224599335835065 -1.2620375929102399
-0.5224599335835065 -1.2886720142198065
-0.5808245250089344 -1.315306435529373
-0.5224599335835065 -1.3019892248745897
-0.4349130464453645 -1.3019892248745897
-0.37654845501993656 -1.3019892248745897
-0.3473661593072226 -1.3419408568389397
-0.5224599335835065 -1.3818924888032895
-0.6100068207216484 -1.4085269101128561
-0.5808245250089344 -1.3818924888032895
-0.5516422292962204 -1.3286236461841563
-0.4057307507326505 -1.2886720142198065
-0.37654845501993656 -1.275354803565023
-0.4349130464453645 -1.3286236461841563
-0.4640953421580785 -1.368575278148506
-0.4640953421580785 -1.3818924888032895
-0.37654845501993656 -1.368575278148506
-0.3181838635945086 -1.3286236461841563
-0.3181838635945086 -1.355258067493723
-0.37654845501993656 -1.4085269101128561
-0.4057307507326505 -1.4751129633867726
-0.4349130464453645 -1.4218441207676393
-0.3473661593072226 -1.3286236461841563
-0.2890015678817946 -1.315306435529373
-0.25981927216908063 -1.355258067493723
-0.2890015678817946 -1.3952096994580727
-0.3473661593072226 -1.4351613314224227
-0.25981927216908063 -1.448478542077206
-0.2014546807436527 -1.4218441207676393
-0.14309008931822473 -1.3818924888032895
-0.11390779360551075 -1.4085269101128561
-0.14309008931822473 -1.448478542077206
-0.1722723850309387 -1.4884301740415558
-0.11390779360551075 -1.4218441207676393
-0.1722723850309387 -1.4085269101128561
0.11955057209620108 -1.368575278148506
0.0903682763834871 -1.355258067493723
0.061185980670773125 -1.3818924888032895
0.0028213892453451675 -1.355258067493723
0.0028213892453451675 -1.3019892248745897
0.0028213892453451675 -1.22208596094589
0.20709745923434303 -1.2487203822554567
0.20709745923434303 -1.2487203822554567
0.11955057209620108 -1.2354031716006733
0.14873286780891506 -1.2087687502911066
0.11955057209620108 -1.1688171183267568
0.32382664208519896 -1.0755966437432738
0.41137352922334086 -0.9823761691597908
0.3821912335106269 -0.902472905231091
0.32382664208519896 -0.942424537195441
0.44055582493605483 -0.8625212732667411
0.44055582493605483 -0.8625212732667411
0.5572850077869108 -0.7826180093380414
0.5864673034996247 -0.7027147454093416
0.46973812064876885 -0.6494459027902085
0.5864673034996247 -0.6228114814806419
0.46973812064876885 -0.6627631134449918
0.44055582493605483 -0.5695426388615088
0.6156495992123387 -0.5029565855875923
0.7031964863504807 -0.489639374932809
0.6156495992123387 -0.4763221642780257
0.4989204163614828 -0.4763221642780257
0.41137352922334086 -0.46300495362324245
0.3821912335106269 -0.4230533216588926
0.4989204163614828 -0.3431500577301928
0.4989204163614828 -0.32983284707540955
0.5281027120741968 -0.32983284707540955
0.3530089377979129 -0.396418900349326
0.26546205065977097 -0.43637053231367584
0.26546205065977097 -0.4230533216588926
0.29464434637248493 -0.3697844790397594
0.32382664208519896 -0.396418900349326
0.11955057209620108 -0.4230533216588926
0.11955057209620108 -0.43637053231367584
-0.02636090646736881 -0.44968774296845915
-0.05554320218008279 -0.38310168969454267
0.0028213892453451675 -0.32983284707540955
0.061185980670773125 -0.32983284707540955
0.0903682763834871 -0.3431500577301928
0.0028213892453451675 -0.4097361110041093
-0.08472549789279676 -0.44968774296845915
-0.14309008931822473 -0.46300495362324245
-0.14309008931822473 -0.44968774296845915
-0.11390779360551075 -0.43637053231367584
-0.1722723850309387 -0.43637053231367584
-0.23063697645636666 -0.44968774296845915
-0.2890015678817946 -0.5562254282067255
-0.3181838635945086 -0.5828598495162921
-0.23063697645636666 -0.5429082175519422
-0.23063697645636666 -0.5295910068971589
-0.23063697645636666 -0.5695426388615088
-0.37654845501993656 -0.5429082175519422
-0.4640953421580785 -0.5562254282067255
-0.4057307507326505 -0.5029565855875923
-0.3473661593072226 -0.4763221642780257
-0.3181838635945086 -0.4230533216588926
-0.23063697645636666 -0.43637053231367584
-0.3181838635945086 -0.489639374932809
-0.3473661593072226 -0.5162737962423756
-0.3181838635945086 -0.489639374932809
-0.2890015678817946 -0.5162737962423756
-0.23063697645636666 -0.4763221642780257
-0.23063697645636666 -0.5429082175519422
-0.25981927216908063 -0.5429082175519422
-0.37654845501993656 -0.5562254282067255
-0.37654845501993656 -0.5162737962423756
-0.3181838635945086 -0.489639374932809
-0.2014546807436527 -0.5029565855875923
-0.2014546807436527 -0.5029565855875923
-0.23063697645636666 -0.5695426388615088
-0.3473661593072226 -0.5961770601710753
-0.3181838635945086 -0.5695426388615088
-0.25981927216908063 -0.5562254282067255
-0.23063697645636666 -0.5029565855875923
-0.25981927216908063 -0.5029565855875923
-0.23063697645636666 -0.5562254282067255
-0.25981927216908063 -0.5961770601710753
-0.3181838635945086 -0.5562254282067255
-0.3181838635945086 -0.5295910068971589
-0.2014546807436527 -0.489639374932809
-0.2014546807436527 -0.5295910068971589
-0.25981927216908063 -0.5429082175519422
-0.3473661593072226 -0.5029565855875923
-0.23063697645636666 -0.46300495362324245
-0.2014546807436527 -0.4097361110041093
-0.08472549789279676 -0.46300495362324245
-0.2014546807436527 -0.5029565855875923
-0.2014546807436527 -0.5828598495162921
-0.2890015678817946 -0.5695426388615088
-0.25981927216908063 -0.5295910068971589
-0.23063697645636666 -0.5029565855875923
-0.11390779360551075 -0.46300495362324245
-0.08472549789279676 -0.489639374932809
-0.2014546807436527 -0.4763221642780257
-0.2014546807436527 -0.5295910068971589
-0.3181838635945086 -0.5029565855875923
-0.2014546807436527 -0.489639374932809
-0.14309008931822473 -0.46300495362324245
-0.11390779360551075 -0.44968774296845915
-0.14309008931822473 -0.489639374932809
-0.25981927216908063 -0.489639374932809
-0.25981927216908063 -0.4097361110041093
-0.25981927216908063 -0.3697844790397594
-0.23063697645636666 -0.3697844790397594
-0.2014546807436527 -0.4230533216588926
-0.25981927216908063 -0.4763221642780257
-0.25981927216908063 -0.489639374932809
-0.3181838635945086 -0.5162737962423756
-0.23063697645636666 -0.46300495362324245
-0.1722723850309387 -0.5162737962423756
-0.3181838635945086 -0.5162737962423756
-0.3473661593072226 -0.5429082175519422
-0.4349130464453645 -0.5562254282067255
-0.4640953421580785 -0.5562254282067255
-0.37654845501993656 -0.5162737962423756
-0.3181838635945086 -0.4763221642780257
-0.2890015678817946 -0.4763221642780257
-0.2890015678817946 -0.46300495362324245
-0.4057307507326505 -0.489639374932809
-0.3473661593072226 -0.46300495362324245
-0.37654845501993656 -0.44968774296845915
-0.2890015678817946 -0.46300495362324245
-0.37654845501993656 -0.4763221642780257
-0.37654845501993656 -0.489639374932809
-0.4349130464453645 -0.46300495362324245
-0.4640953421580785 -0.396418900349326
-0.3473661593072226 -0.3431500577301928
-0.23063697645636666 -0.3697844790397594
-0.2890015678817946 -0.4230533216588926
-0.3473661593072226 -0.489639374932809
-0.5516422292962204 -0.5295910068971589
-0.6975537078597903 -0.6228114814806419
-0.5224599335835065 -0.6094942708258586
-0.4640953421580785 -0.5562254282067255
-0.4640953421580785 -0.5295910068971589
-0.5516422292962204 -0.5162737962423756
-0.5224599335835065 -0.4763221642780257
-0.6100068207216484 -0.489639374932809
-0.5224599335835065 -0.46300495362324245
-0.4640953421580785 -0.46300495362324245
-0.4932776378707925 -0.489639374932809
-0.4640953421580785 -0.5162737962423756
-0.5224599335835065 -0.5695426388615088
-0.4932776378707925 -0.5562254282067255
-0.5808245250089344 -0.5295910068971589
-0.5516422292962204 -0.489639374932809
-0.4349130464453645 -0.5162737962423756
-0.5224599335835065 -0.5429082175519422
-0.5808245250089344 -0.5562254282067255
-0.5516422292962204 -0.5162737962423756
-0.4640953421580785 -0.4763221642780257
-0.4057307507326505 -0.43637053231367584
-0.37654845501993656 -0.46300495362324245
-0.4349130464453645 -0.5429082175519422
-0.4932776378707925 -0.5429082175519422
-0.5808245250089344 -0.5162737962423756
-0.4640953421580785 -0.4763221642780257
-0.3181838635945086 -0.43637053231367584
-0.2014546807436527 -0.43637053231367584
-0.3181838635945086 -0.44968774296845915
-0.3473661593072226 -0.46300495362324245
-0.37654845501993656 -0.4097361110041093
-0.2890015678817946 -0.3697844790397594
-0.2014546807436527 -0.38310168969454267
-0.11390779360551075 -0.396418900349326
-0.1722723850309387 -0.4230533216588926
-0.3181838635945086 -0.43637053231367584
-0.25981927216908063 -0.38310168969454267
-0.1722723850309387 -0.28988121511105963
-0.11390779360551075 -0.2632467938014931
-0.08472549789279676 -0.2099779511823599
-0.05554320218008279 -0.2632467938014931
-0.11390779360551075 -0.30319842576584294
-0.23063697645636666 -0.32983284707540955
-0.11390779360551075 -0.28988121511105963
-0.11390779360551075 -0.30319842576584294
-0.1722723850309387 -0.396418900349326
-0.3181838635945086 -0.44968774296845915
-0.37654845501993656 -0.4763221642780257
-0.4640953421580785 -0.4230533216588926
-0.4057307507326505 -0.3564672683849761
-0.25981927216908063 -0.3564672683849761
-0.3181838635945086 -0.3564672683849761
-0.3473661593072226 -0.32983284707540955
-0.37654845501993656 -0.3564672683849761
-0.25981927216908063 -0.30319842576584294
-0.1722723850309387 -0.28988121511105963
-0.05554320218008279 -0.28988121511105963
-0.1722723850309387 -0.38310168969454267
-0.25981927216908063 -0.46300495362324245
-0.3473661593072226 -0.46300495362324245
-0.4349130464453645 -0.4097361110041093
-0.4932776378707925 -0.3697844790397594
-0.5224599335835065 -0.3564672683849761
-0.4932776378707925 -0.38310168969454267
-0.5516422292962204 -0.46300495362324245
-0.5224599335835065 -0.5562254282067255
-0.5224599335835065 -0.5429082175519422
-0.5224599335835065 -0.5295910068971589
-0.4932776378707925 -0.5162737962423756
-0.5224599335835065 -0.5029565855875923
-0.5516422292962204 -0.5162737962423756
-0.5224599335835065 -0.5162737962423756
-0.4932776378707925 -0.489639374932809
-0.4057307507326505 -0.4763221642780257
-0.37654845501993656 -0.4763221642780257
-0.37654845501993656 -0.5429082175519422
-0.4932776378707925 -0.6094942708258586
-0.5808245250089344 -0.6893975347545583
-0.6391891164343624 -0.6094942708258586
-0.5808245250089344 -0.5295910068971589
-0.5224599335835065 -0.489639374932809
-0.5516422292962204 -0.5295910068971589
-0.5516422292962204 -0.5562254282067255
-0.6683714121470764 -0.5828598495162921
-0.6391891164343624 -0.5562254282067255
-0.5808245250089344 -0.489639374932809
-0.5224599335835065 -0.46300495362324245
-0.5224599335835065 -0.5029565855875923
-0.5808245250089344 -0.5029565855875923
-0.6683714121470764 -0.5029565855875923
-0.6975537078597903 -0.4763221642780257
-0.5516422292962204 -0.43637053231367584
-0.4640953421580785 -0.396418900349326
-0.4057307507326505 -0.3431500577301928
-0.4349130464453645 -0.28988121511105963
-0.37654845501993656 -0.2099779511823599
-0.2890015678817946 -0.03685421267017713
-0.05554320218008279 0.13626952584200563
0.29464434637248493 0.3626621069733216
0.4989204163614828 0.522468634830721
0.6156495992123387 0.6955923733429038
0.7615610777759086 0.9752537970933529
0.6740141906377667 1.3215012741177186
0.7615610777759086 1.7609692257255671
0.8199256692013366 2.2403888092977655
0.8782902606267645 2.679856760905614
1.1117486263284764 3.0660558698943294
1.1409309220411903 3.4256205575734784
1.0242017391903344 3.7851852452526273
1.0242017391903344 4.1580671435865595
1.0242017391903344 4.637486727158758
1.1701132177539044 5.156857942695306
1.2868424006047603 5.6096431049579385
1.695394540582756 5.8227184754344705
2.4541342291133192 5.7561324221605545
3.329603100494739 5.290030049243139
3.9424313104617323 4.264604828824826
3.8840667190363045 2.86629771007258
2.8918686648040293 1.6144799085229509
1.2284778091793322 0.8420816905455201
-0.7559182992852183 0.3493448963185383
-1.9232101277937774 0.056366261913305904
-2.2150330849209174 -0.11675747659887688
-2.185850789208203 -0.19666074052757662
-2.0691216063573474 -0.30319842576584294
-1.8940278320810635 -0.3431500577301928
-1.4271111006776398 -0.4097361110041093
-0.9601943692742162 -0.44968774296845915
-0.5516422292962204 -0.5029565855875923
-0.4932776378707925 -0.5562254282067255
-0.5516422292962204 -0.6094942708258586
-0.5808245250089344 -0.6627631134449918
-0.6391891164343624 -0.676080324099775
-0.5224599335835065 -0.676080324099775
-0.4640953421580785 -0.6627631134449918
-0.4349130464453645 -0.7559835880284749
-0.4640953421580785 -0.8492040626119579
-0.6100068207216484 -0.8758384839215244
-0.6391891164343624 -0.8358868519571746
-0.4640953421580785 -0.7959352199928247
-0.37654845501993656 -0.7959352199928247
-0.37654845501993656 -0.809252430647608
-0.3473661593072226 -0.8758384839215244
-0.4057307507326505 -0.8625212732667411
-0.4349130464453645 -0.8625212732667411
-0.3473661593072226 -0.8225696413023913
-0.23063697645636666 -0.8358868519571746
-0.2890015678817946 -0.902472905231091
-0.2890015678817946 -0.9291073265406576
-0.3473661593072226 -0.902472905231091
-0.37654845501993656 -0.8891556945763077
-0.2890015678817946 -0.8625212732667411
-0.1722723850309387 -0.902472905231091
-0.23063697645636666 -0.9291073265406576
-0.3473661593072226 -1.0090105904693574
-0.3181838635945086 -1.035645011778924
-0.4057307507326505 -0.9823761691597908
-0.25981927216908063 -0.8891556945763077
-0.11390779360551075 -0.9157901158858743
-0.1722723850309387 -0.9291073265406576
-0.23063697645636666 -0.9557417478502241
-0.2890015678817946 -0.9690589585050075
-0.2890015678817946 -0.9823761691597908
-0.2014546807436527 -0.9956933798145741
-0.08472549789279676 -1.035645011778924
-0.14309008931822473 -1.0622794330884906
-0.23063697645636666 -1.1022310650528404
-0.3181838635945086 -1.0755966437432738
-0.3473661593072226 -1.0489622224337072
-0.2890015678817946 -1.0489622224337072
-0.11390779360551075 -0.9956933798145741
-0.11390779360551075 -1.0622794330884906
-0.14309008931822473 -1.0622794330884906
-0.23063697645636666 -1.1022310650528404
-0.25981927216908063 -1.1155482757076236
-0.25981927216908063 -1.1022310650528404
-0.08472549789279676 -1.088913854398057
-0.05554320218008279 -1.088913854398057
-0.1722723850309387 -1.1421826970171902
-0.23063697645636666 -1.1421826970171902
-0.14309008931822473 -1.088913854398057
-0.05554320218008279 -1.035645011778924
0.03200368495805914 -1.0223278011241406
-0.05554320218008279 -0.9956933798145741
-0.05554320218008279 -1.0622794330884906
-0.05554320218008279 -1.1421826970171902
-0.08472549789279676 -1.1954515396363234
-0.02636090646736881 -1.2087687502911066
0.11955057209620108 -1.2354031716006733
0.0028213892453451675 -1.2354031716006733
-0.1722723850309387 -1.2354031716006733
-0.23063697645636666 -1.2487203822554567
-0.1722723850309387 -1.2487203822554567
0.0028213892453451675 -1.1954515396363234
0.11955057209620108 -1.1421826970171902
0.061185980670773125 -1.1954515396363234
0.061185980670773125 -1.2487203822554567
0.061185980670773125 -1.22208596094589
0.0028213892453451675 -1.1954515396363234
0.11955057209620108 -1.1421826970171902
0.17791516352162903 -1.1155482757076236
0.26546205065977097 -1.1421826970171902
0.26546205065977097 -1.1421826970171902
0.26546205065977097 -1.18213432898154
0.32382664208519896 -1.128865486362407
0.44055582493605483 -1.088913854398057
0.4989204163614828 -1.088913854398057
0.4989204163614828 -1.088913854398057
0.4989204163614828 -1.088913854398057
0.44055582493605483 -1.035645011778924
0.5572850077869108 -1.0090105904693574
0.6740141906377667 -0.9291073265406576
0.7907433734886226 -0.9291073265406576
0.8199256692013366 -0.902472905231091
0.7907433734886226 -0.8891556945763077
0.8491079649140506 -0.8492040626119579
0.9074725563394785 -0.716031956064125
1.0242017391903344 -0.5961770601710753
1.1117486263284764 -0.5162737962423756
1.1992955134666183 -0.5029565855875923
1.1701132177539044 -0.46300495362324245
1.1992955134666183 -0.43637053231367584
1.1992955134666183 -0.3697844790397594
1.1992955134666183 -0.31651563642062625
1.2576601048920462 -0.32983284707540955
1.1992955134666183 -0.28988121511105963
1.0242017391903344 -0.30319842576584294
0.9658371477649065 -0.2765640044562764
0.8782902606267645 -0.2099779511823599
0.9074725563394785 -0.18334352987279334
0.9366548520521925 -0.19666074052757662
0.8491079649140506 -0.2099779511823599
0.6740141906377667 -0.2366123724919265
0.5572850077869108 -0.2232951618371432
0.4989204163614828 -0.17002631921801004
0.5864673034996247 -0.11675747659887688
0.6156495992123387 -0.14339189790844345
0.5281027120741968 -0.17002631921801004
0.41137352922334086 -0.2099779511823599
0.26546205065977097 -0.2366123724919265
0.20709745923434303 -0.2499295831467098
0.26546205065977097 -0.2632467938014931
0.29464434637248493 -0.2499295831467098
0.20709745923434303 -0.2499295831467098
0.17791516352162903 -0.2765640044562764
0.061185980670773125 -0.28988121511105963
0.0028213892453451675 -0.2632467938014931
0.0028213892453451675 -0.2232951618371432
0.14873286780891506 -0.2099779511823599
0.14873286780891506 -0.2632467938014931
0.061185980670773125 -0.28988121511105963
0.03200368495805914 -0.3564672683849761
-0.02636090646736881 -0.3697844790397594
0.0028213892453451675 -0.38310168969454267
0.0028213892453451675 -0.3697844790397594
-0.14309008931822473 -0.3564672683849761
-0.14309008931822473 -0.3697844790397594
-0.14309008931822473 -0.3564672683849761
-0.14309008931822473 -0.3431500577301928
0.0028213892453451675 -0.2499295831467098
-0.02636090646736881 -0.30319842576584294
-0.02636090646736881 -0.32983284707540955
-0.05554320218008279 -0.3697844790397594
-0.11390779360551075 -0.3564672683849761
-0.14309008931822473 -0.3431500577301928
-0.11390779360551075 -0.28988121511105963
0.03200368495805914 -0.30319842576584294
0.0028213892453451675 -0.31651563642062625
-0.14309008931822473 -0.30319842576584294
-0.11390779360551075 -0.32983284707540955
-0.2014546807436527 -0.30319842576584294
-0.14309008931822473 -0.2765640044562764
-0.02636090646736881 -0.3697844790397594
-0.08472549789279676 -0.43637053231367584
-0.25981927216908063 -0.46300495362324245
-0.3473661593072226 -0.46300495362324245
-0.37654845501993656 -0.43637053231367584
-0.37654845501993656 -0.396418900349326
-0.2014546807436527 -0.3697844790397594
-0.2014546807436527 -0.4097361110041093
-0.3181838635945086 -0.44968774296845915
-0.37654845501993656 -0.4763221642780257
-0.3473661593072226 -0.38310168969454267
-0.3473661593072226 -0.3431500577301928
-0.1722723850309387 -0.31651563642062625
-0.14309008931822473 -0.4097361110041093
-0.1722723850309387 -0.46300495362324245
-0.2890015678817946 -0.489639374932809
-0.3181838635945086 -0.43637053231367584
-0.2890015678817946 -0.4097361110041093
-0.11390779360551075 -0.38310168969454267
-0.1722723850309387 -0.4097361110041093
-0.23063697645636666 -0.396418900349326
-0.2890015678817946 -0.396418900349326
-0.25981927216908063 -0.3431500577301928
-0.1722723850309387 -0.32983284707540955
-0.08472549789279676 -0.30319842576584294
-0.1722723850309387 -0.38310168969454267
-0.1722723850309387 -0.4097361110041093
-0.25981927216908063 -0.43637053231367584
-0.25981927216908063 -0.4230533216588926
-0.1722723850309387 -0.38310168969454267
-0.1722723850309387 -0.3564672683849761
-0.2014546807436527 -0.38310168969454267
-0.37654845501993656 -0.4230533216588926
-0.4640953421580785 -0.44968774296845915
-0.37654845501993656 -0.4230533216588926
-0.3181838635945086 -0.3564672683849761
-0.23063697645636666 -0.3431500577301928
-0.2014546807436527 -0.38310168969454267
-0.23063697645636666 -0.4230533216588926
-0.2014546807436527 -0.4097361110041093
-0.3181838635945086 -0.38310168969454267
-0.2890015678817946 -0.3431500577301928
-0.1722723850309387 -0.3431500577301928
-0.2014546807436527 -0.3697844790397594
-0.3181838635945086 -0.38310168969454267
-0.3181838635945086 -0.396418900349326
-0.3181838635945086 -0.3697844790397594
-0.2890015678817946 -0.32983284707540955
-0.1722723850309387 -0.32983284707540955
-0.2890015678817946 -0.3431500577301928
-0.2890015678817946 -0.3697844790397594
-0.4349130464453645 -0.4097361110041093
-0.37654845501993656 -0.396418900349326
-0.25981927216908063 -0.3697844790397594
-0.23063697645636666 -0.396418900349326
-0.3181838635945086 -0.46300495362324245
-0.37654845501993656 -0.46300495362324245
-0.5224599335835065 -0.46300495362324245
-0.5224599335835065 -0.396418900349326
-0.4640953421580785 -0.3697844790397594
-0.37654845501993656 -0.4097361110041093
-0.3181838635945086 -0.43637053231367584
-0.4349130464453645 -0.489639374932809
-0.5808245250089344 -0.46300495362324245
-0.4640953421580785 -0.4230533216588926
-0.37654845501993656 -0.396418900349326
-0.3181838635945086 -0.43637053231367584
-0.3181838635945086 -0.46300495362324245
-0.4349130464453645 -0.43637053231367584
-0.5516422292962204 -0.4097361110041093
-0.6391891164343624 -0.396418900349326
-0.5224599335835065 -0.396418900349326
-0.4057307507326505 -0.4230533216588926
-0.4057307507326505 -0.46300495362324245
-0.4640953421580785 -0.489639374932809
-0.5224599335835065 -0.4763221642780257
-0.5516422292962204 -0.43637053231367584
-0.5516422292962204 -0.3431500577301928
-0.5224599335835065 -0.3697844790397594
-0.5224599335835065 -0.396418900349326
-0.6975537078597903 -0.44968774296845915
-0.6683714121470764 -0.4763221642780257
-0.6975537078597903 -0.44968774296845915
-0.6391891164343624 -0.44968774296845915
-0.4932776378707925 -0.46300495362324245
-0.4932776378707925 -0.4763221642780257
-0.6100068207216484 -0.5162737962423756
-0.6975537078597903 -0.5029565855875923
-0.7267360035725043 -0.44968774296845915
-0.6100068207216484 -0.4230533216588926
-0.4932776378707925 -0.396418900349326
-0.4349130464453645 -0.44968774296845915
-0.4640953421580785 -0.5295910068971589
-0.5224599335835065 -0.5295910068971589
-0.5516422292962204 -0.44968774296845915
-0.4057307507326505 -0.4097361110041093
-0.2890015678817946 -0.4097361110041093
-0.2890015678817946 -0.396418900349326
-0.3473661593072226 -0.4230533216588926
-0.4057307507326505 -0.4230533216588926
-0.4640953421580785 -0.3564672683849761
-0.37654845501993656 -0.28988121511105963
-0.23063697645636666 -0.3431500577301928
-0.14309008931822473 -0.396418900349326
-0.1722723850309387 -0.38310168969454267
-0.25981927216908063 -0.3431500577301928
-0.2014546807436527 -0.2366123724919265
-0.14309008931822473 -0.2632467938014931
-0.02636090646736881 -0.32983284707540955
-0.1722723850309387 -0.3431500577301928
-0.2890015678817946 -0.38310168969454267
-0.4640953421580785 -0.3697844790397594
-0.4932776378707925 -0.3431500577301928
-0.4640953421580785 -0.31651563642062625
-0.4057307507326505 -0.3431500577301928
-0.4932776378707925 -0.3564672683849761
-0.5224599335835065 -0.3697844790397594
-0.6391891164343624 -0.3431500577301928
-0.5808245250089344 -0.2765640044562764
-0.5516422292962204 -0.2499295831467098
-0.3473661593072226 -0.30319842576584294
-0.3473661593072226 -0.3431500577301928
-0.4640953421580785 -0.3697844790397594
-0.5224599335835065 -0.3431500577301928
-0.4932776378707925 -0.3431500577301928
-0.37654845501993656 -0.3431500577301928
-0.23063697645636666 -0.4230533216588926
-0.4057307507326505 -0.5162737962423756
-0.5516422292962204 -0.5695426388615088
-0.8142828907106463 -0.5562254282067255
-0.9893766649869301 -0.5029565855875923
-1.0185589606996441 -0.4763221642780257
-0.9601943692742162 -0.4763221642780257
-0.9018297778487881 -0.5162737962423756
-0.9018297778487881 -0.5695426388615088
-0.9310120735615022 -0.5429082175519422
-0.9601943692742162 -0.5295910068971589
-0.8434651864233602 -0.4763221642780257
-0.7559182992852183 -0.5162737962423756
-0.8434651864233602 -0.5295910068971589
-0.9893766649869301 -0.5429082175519422
-1.076923552125072 -0.5162737962423756
-0.9601943692742162 -0.5295910068971589
-0.9310120735615022 -0.46300495362324245
-0.8726474821360742 -0.44968774296845915
-0.9018297778487881 -0.489639374932809
-0.9893766649869301 -0.5429082175519422
-1.1352881435505 -0.5562254282067255
-1.047741256412358 -0.5029565855875923
-0.9310120735615022 -0.489639374932809
-0.8142828907106463 -0.489639374932809
-0.9893766649869301 -0.5562254282067255
-1.0185589606996441 -0.5695426388615088
-0.9893766649869301 -0.5828598495162921
-0.9893766649869301 -0.5162737962423756
-0.9893766649869301 -0.44968774296845915
-0.8434651864233602 -0.44968774296845915
-0.7851005949979323 -0.4230533216588926
-0.8434651864233602 -0.489639374932809
-0.8434651864233602 -0.4763221642780257
-0.7851005949979323 -0.46300495362324245
-0.7559182992852183 -0.3564672683849761
-0.6391891164343624 -0.2632467938014931
-0.6683714121470764 -0.18334352987279334
-0.5808245250089344 -0.076805844634527
-0.4057307507326505 0.13626952584200563
-0.14309008931822473 0.3759793176281049
0.11955057209620108 0.6023718987594208
0.3821912335106269 0.9353021651290031
0.32382664208519896 1.294866852808152
0.11955057209620108 1.7343348044160005
0.061185980670773125 2.2537060199525487
0.17791516352162903 2.719808392869964
0.44055582493605483 3.1193247125134627
0.5281027120741968 3.4522549788830452
0.3530089377979129 3.7452336132882773
0.03200368495805914 4.024895037038727
-0.1722723850309387 4.437728567337008
-0.14309008931822473 4.93046536156399
0.14873286780891506 5.369933313171839
0.7615610777759086 5.596325894303154
1.4035715834556162 5.489788209064889
2.0747643848480375 5.023685836147473
2.5708634119641753 4.144749932931776
2.7459571862404593 2.892932131382147
2.2790404548370353 1.6943831724516507
1.0242017391903344 0.7754956372716036
-0.6683714121470764 0.29607605369940515
-2.0983039020700613 -0.09012305528931029
-2.7403144077497688 -0.2765640044562764
-2.7694967034624827 -0.4097361110041093
-2.623585224898913 -0.46300495362324245
-2.360944563484487 -0.489639374932809
-2.0983039020700613 -0.5695426388615088
-1.6897517620920657 -0.6361286921354252
-1.28119962211407 -0.7027147454093416
-1.164470439263214 -0.6893975347545583
-1.076923552125072 -0.7027147454093416
-1.106105847837786 -0.7559835880284749
-0.9893766649869301 -0.809252430647608
-1.076923552125072 -0.8358868519571746
-1.106105847837786 -0.8625212732667411
-1.1352881435505 -0.8758384839215244
-1.106105847837786 -0.8891556945763077
-1.076923552125072 -0.8758384839215244
-1.076923552125072 -0.9690589585050075
-1.047741256412358 -0.9823761691597908
-1.1352881435505 -0.9956933798145741
-1.047741256412358 -0.942424537195441
-1.0185589606996441 -0.9157901158858743
-0.9310120735615022 -0.9291073265406576
-0.8726474821360742 -1.0223278011241406
-0.9310120735615022 -1.0755966437432738
-0.9893766649869301 -1.0489622224337072
-0.9893766649869301 -0.9956933798145741
-0.8726474821360742 -0.9690589585050075
-0.8142828907106463 -0.9956933798145741
-0.8142828907106463 -1.0223278011241406
-0.8434651864233602 -1.0755966437432738
-0.9893766649869301 -1.1022310650528404
-1.0185589606996441 -1.0622794330884906
-0.9310120735615022 -1.0489622224337072
-0.7559182992852183 -1.0489622224337072
-0.7851005949979323 -1.0755966437432738
-0.9018297778487881 -1.1155482757076236
-0.9601943692742162 -1.128865486362407
-0.9310120735615022 -1.128865486362407
-0.9018297778487881 -1.088913854398057
-0.8142828907106463 -1.1022310650528404
-0.8434651864233602 -1.1022310650528404
-0.9601943692742162 -1.128865486362407
-0.9018297778487881 -1.128865486362407
-0.9018297778487881 -1.1022310650528404
-0.8142828907106463 -1.128865486362407
-0.7559182992852183 -1.128865486362407
-0.8142828907106463 -1.1954515396363234
-0.8434651864233602 -1.22208596094589
-0.8726474821360742 -1.2087687502911066
-0.9018297778487881 -1.1688171183267568
-0.7851005949979323 -1.1421826970171902
-0.6975537078597903 -1.1554999076719736
-0.5808245250089344 -1.22208596094589
-0.6975537078597903 -1.2087687502911066
-0.8434651864233602 -1.2354031716006733
-0.9310120735615022 -1.2487203822554567
-0.8726474821360742 -1.2087687502911066
-0.8142828907106463 -1.1554999076719736
-0.7851005949979323 -1.1954515396363234
-0.7851005949979323 -1.2620375929102399
-0.8142828907106463 -1.2620375929102399
-0.7851005949979323 -1.2354031716006733
-0.6975537078597903 -1.2087687502911066
-0.6100068207216484 -1.2354031716006733
-0.6391891164343624 -1.2886720142198065
-0.7267360035725043 -1.355258067493723
-0.7851005949979323 -1.368575278148506
-0.7559182992852183 -1.315306435529373
-0.6683714121470764 -1.275354803565023
-0.5808245250089344 -1.2487203822554567
-0.5516422292962204 -1.2487203822554567
-0.6975537078597903 -1.2620375929102399
-0.6975537078597903 -1.275354803565023
-0.5808245250089344 -1.2487203822554567
-0.4349130464453645 -1.2886720142198065
-0.4349130464453645 -1.2354031716006733
-0.4640953421580785 -1.2354031716006733
-0.3473661593072226 -1.2620375929102399
-0.4057307507326505 -1.3019892248745897
-0.25981927216908063 -1.2620375929102399
-0.2014546807436527 -1.1155482757076236
-0.2014546807436527 -1.0622794330884906
-0.2014546807436527 -1.035645011778924
-0.2014546807436527 -1.088913854398057
-0.23063697645636666 -1.035645011778924
-0.2014546807436527 -0.942424537195441
-0.08472549789279676 -0.8358868519571746
-0.02636090646736881 -0.8225696413023913
0.03200368495805914 -0.809252430647608
0.03200368495805914 -0.7693007986832581
0.0028213892453451675 -0.716031956064125
0.0028213892453451675 -0.6494459027902085
0.11955057209620108 -0.5295910068971589
0.17791516352162903 -0.489639374932809
0.17791516352162903 -0.5295910068971589
0.0028213892453451675 -0.5162737962423756
-0.11390779360551075 -0.5029565855875923
-0.08472549789279676 -0.4230533216588926
-0.14309008931822473 -0.396418900349326
-0.08472549789279676 -0.396418900349326
-0.11390779360551075 -0.4097361110041093
-0.25981927216908063 -0.46300495362324245
-0.37654845501993656 -0.5162737962423756
-0.4640953421580785 -0.4763221642780257
-0.4057307507326505 -0.46300495362324245
-0.4932776378707925 -0.5162737962423756
-0.4932776378707925 -0.5162737962423756
-0.6391891164343624 -0.5695426388615088
-0.8142828907106463 -0.5429082175519422
-0.7559182992852183 -0.5029565855875923
-0.8434651864233602 -0.4763221642780257
-0.7851005949979323 -0.46300495362324245
-0.7851005949979323 -0.5295910068971589
-0.8726474821360742 -0.5828598495162921
-0.9601943692742162 -0.5961770601710753
-1.047741256412358 -0.6494459027902085
-1.047741256412358 -0.5961770601710753
-0.9893766649869301 -0.6494459027902085
-1.047741256412358 -0.6361286921354252
-1.106105847837786 -0.7027147454093416
-1.193652734975928 -0.676080324099775
-1.164470439263214 -0.6094942708258586
-1.0185589606996441 -0.5828598495162921
-0.9310120735615022 -0.6627631134449918
-1.0185589606996441 -0.7027147454093416
-1.28119962211407 -0.7027147454093416
-1.4271111006776398 -0.6627631134449918
-1.4271111006776398 -0.5961770601710753
-1.310381917826784 -0.6228114814806419
-1.164470439263214 -0.6893975347545583
-1.164470439263214 -0.7293491667189083
-1.28119962211407 -0.7826180093380414
-1.4562933963903537 -0.7426663773736916
-1.4562933963903537 -0.7559835880284749
-1.4271111006776398 -0.676080324099775
-1.28119962211407 -0.676080324099775
-1.310381917826784 -0.7559835880284749
-1.310381917826784 -0.7559835880284749
-1.3979288049649259 -0.7693007986832581
-1.4562933963903537 -0.716031956064125
-1.4854756921030678 -0.6893975347545583
-1.3395642135394978 -0.716031956064125
-1.310381917826784 -0.7293491667189083
-1.4562933963903537 -0.7959352199928247
-1.5146579878157818 -0.7826180093380414
-1.5146579878157818 -0.7293491667189083
-1.5146579878157818 -0.6893975347545583
-1.310381917826784 -0.6893975347545583
-1.28119962211407 -0.7027147454093416
-1.3395642135394978 -0.7027147454093416
-1.3979288049649259 -0.716031956064125
-1.3395642135394978 -0.6627631134449918
-1.2520173264013559 -0.6494459027902085
-1.222835030688642 -0.6228114814806419
-1.222835030688642 -0.6627631134449918
-1.3395642135394978 -0.7027147454093416
-1.2520173264013559 -0.7426663773736916
-1.28119962211407 -0.6893975347545583
-1.193652734975928 -0.6627631134449918
-1.164470439263214 -0.6494459027902085
-1.28119962211407 -0.7027147454093416
-1.2520173264013559 -0.7293491667189083
-1.3687465092522118 -0.6893975347545583
-1.3687465092522118 -0.6627631134449918
-1.4271111006776398 -0.6494459027902085
-1.28119962211407 -0.6094942708258586
-1.28119962211407 -0.6494459027902085
-1.3687465092522118 -0.6893975347545583
-1.4854756921030678 -0.676080324099775
-1.3979288049649259 -0.676080324099775
-1.3687465092522118 -0.6494459027902085
-1.4271111006776398 -0.6627631134449918
-1.4562933963903537 -0.6494459027902085
-1.5146579878157818 -0.6627631134449918
-1.5438402835284957 -0.7027147454093416
-1.5146579878157818 -0.716031956064125
-1.4562933963903537 -0.6494459027902085
-1.3687465092522118 -0.6228114814806419
-1.3687465092522118 -0.6228114814806419
-1.4562933963903537 -0.716031956064125
-1.4854756921030678 -0.716031956064125
-1.4562933963903537 -0.6494459027902085
-1.4854756921030678 -0.6228114814806419
-1.4562933963903537 -0.6361286921354252
-1.4562933963903537 -0.6361286921354252
-1.4854756921030678 -0.676080324099775
-1.5146579878157818 -0.6361286921354252
-1.5146579878157818 -0.6094942708258586
-1.5146579878157818 -0.5295910068971589
-1.4271111006776398 -0.5828598495162921
-1.310381917826784 -0.6361286921354252
-1.4854756921030678 -0.6893975347545583
-1.6022048749539237 -0.716031956064125
-1.5730225792412098 -0.7293491667189083
-1.5730225792412098 -0.6893975347545583
-1.5438402835284957 -0.6627631134449918
-1.5730225792412098 -0.676080324099775
-1.6022048749539237 -0.6893975347545583
-1.6313871706666376 -0.676080324099775
-1.6022048749539237 -0.6494459027902085
-1.5730225792412098 -0.6094942708258586
-1.5438402835284957 -0.5961770601710753
-1.6022048749539237 -0.5828598495162921
-1.6313871706666376 -0.6094942708258586
-1.6605694663793515 -0.5695426388615088
-1.6313871706666376 -0.5295910068971589
-1.5438402835284957 -0.489639374932809
-1.5146579878157818 -0.5162737962423756
-1.5730225792412098 -0.5695426388615088
-1.5730225792412098 -0.6228114814806419
-1.6605694663793515 -0.6627631134449918
-1.7189340578047796 -0.676080324099775
-1.6022048749539237 -0.676080324099775
-1.5438402835284957 -0.7027147454093416
-1.5730225792412098 -0.6494459027902085
-1.6605694663793515 -0.6494459027902085
-1.6897517620920657 -0.6228114814806419
-1.6897517620920657 -0.6094942708258586
-1.5730225792412098 -0.5695426388615088
-1.5730225792412098 -0.5295910068971589
-1.5730225792412098 -0.5429082175519422
-1.7189340578047796 -0.5695426388615088
-1.7189340578047796 -0.5695426388615088
-1.6605694663793515 -0.5562254282067255
-1.5730225792412098 -0.5295910068971589
-1.4854756921030678 -0.5429082175519422
-1.5146579878157818 -0.5828598495162921
-1.5730225792412098 -0.6094942708258586
-1.6313871706666376 -0.6094942708258586
-1.5730225792412098 -0.5695426388615088
-1.5730225792412098 -0.5295910068971589
-1.3687465092522118 -0.5295910068971589
-1.3687465092522118 -0.5029565855875923
-1.3687465092522118 -0.5029565855875923
-1.3979288049649259 -0.5029565855875923
-1.3979288049649259 -0.4230533216588926
-1.2520173264013559 -0.396418900349326
-1.193652734975928 -0.4230533216588926
-1.222835030688642 -0.4230533216588926
-1.28119962211407 -0.5029565855875923
-1.3395642135394978 -0.46300495362324245
-1.28119962211407 -0.396418900349326
-1.2520173264013559 -0.3564672683849761
-1.047741256412358 -0.28988121511105963
-1.0185589606996441 -0.31651563642062625
-1.076923552125072 -0.3564672683849761
-1.222835030688642 -0.3697844790397594
-1.222835030688642 -0.3564672683849761
-1.193652734975928 -0.32983284707540955
-1.193652734975928 -0.30319842576584294
-1.28119962211407 -0.30319842576584294
-1.310381917826784 -0.396418900349326
-1.3979288049649259 -0.396418900349326
-1.3687465092522118 -0.38310168969454267
-1.3395642135394978 -0.3431500577301928
-1.2520173264013559 -0.31651563642062625
-1.310381917826784 -0.30319842576584294
-1.4271111006776398 -0.28988121511105963
-1.5146579878157818 -0.31651563642062625
-1.4562933963903537 -0.28988121511105963
-1.3687465092522118 -0.31651563642062625
-1.222835030688642 -0.30319842576584294
-1.3687465092522118 -0.28988121511105963
-1.4271111006776398 -0.30319842576584294
-1.4271111006776398 -0.32983284707540955
-1.310381917826784 -0.31651563642062625
-1.222835030688642 -0.2632467938014931
-1.193652734975928 -0.28988121511105963
-1.2520173264013559 -0.3431500577301928
-1.4271111006776398 -0.3431500577301928
-1.5730225792412098 -0.38310168969454267
-1.5146579878157818 -0.38310168969454267
-1.3687465092522118 -0.396418900349326
-1.3395642135394978 -0.38310168969454267
-1.4271111006776398 -0.396418900349326
-1.4854756921030678 -0.396418900349326
-1.6022048749539237 -0.396418900349326
-1.5730225792412098 -0.3564672683849761
-1.4562933963903537 -0.3431500577301928
-1.3979288049649259 -0.3697844790397594
-1.4271111006776398 -0.43637053231367584
-1.5146579878157818 -0.4763221642780257
-1.5730225792412098 -0.43637053231367584
-1.6022048749539237 -0.3431500577301928
-1.4854756921030678 -0.28988121511105963
-1.4562933963903537 -0.30319842576584294
-1.4562933963903537 -0.32983284707540955
-1.5438402835284957 -0.38310168969454267
-1.6022048749539237 -0.396418900349326
-1.5730225792412098 -0.28988121511105963
-1.5438402835284957 -0.2632467938014931
-1.6022048749539237 -0.2765640044562764
-1.4854756921030678 -0.32983284707540955
-1.5146579878157818 -0.43637053231367584
-1.5438402835284957 -0.43637053231367584
-1.5730225792412098 -0.396418900349326
-1.4271111006776398 -0.31651563642062625
-1.3687465092522118 -0.2632467938014931
-1.4271111006776398 -0.2499295831467098
-1.5146579878157818 -0.2366123724919265
-1.5146579878157818 -0.19666074052757662
-1.4271111006776398 -0.11675747659887688
-1.310381917826784 -0.023537002015393844
-1.164470439263214 0.01641462994895603
-0.9893766649869301 0.09631789387765577
-0.9310120735615022 0.22949000042548867
-0.8434651864233602 0.4958342135211545
-0.6100068207216484 0.7355440053072537
-0.1722723850309387 0.9619365864385697
0.03200368495805914 1.2682324314985853
-0.11390779360551075 1.6544315404873007
-0.25981927216908063 2.1072167027499327
-0.25981927216908063 2.626587918286481
-0.11390779360551075 3.0926902912038963
0.20709745923434303 3.4655721895378284
0.26546205065977097 3.771868034597844
-0.11390779360551075 4.104798300967427
-0.5516422292962204 4.504314620610925
-0.8142828907106463 5.01036862549269
-0.5224599335835065 5.543057051684022
0.20709745923434303 5.94257337132752
1.0242017391903344 5.955890581982303
1.9288529062844677 5.662911947577071
2.5416811162514614 4.93046536156399
2.862686369091315 3.8118196665621937
2.5416811162514614 2.5466846543577812
1.4035715834556162 1.6144799085229509
-0.11390779360551075 1.0418398503672694
-1.7772986492302076 0.6023718987594208
-2.798678999175197 0.28275884304462184
-3.1780488434404788 0.14958673649678894
-3.0613196605896227 0.08300068322287249
-2.652767520611627 0.04304905125852261
-2.0691216063573474 -0.06348863397974372
-1.5730225792412098 -0.14339189790844345
-1.3979288049649259 -0.19666074052757662
-1.4271111006776398 -0.2499295831467098
-1.3395642135394978 -0.2632467938014931
-1.28119962211407 -0.2765640044562764
-1.28119962211407 -0.3431500577301928
-1.310381917826784 -0.38310168969454267
-1.310381917826784 -0.43637053231367584
-1.3687465092522118 -0.44968774296845915
-1.2520173264013559 -0.46300495362324245
-1.164470439263214 -0.43637053231367584
-1.106105847837786 -0.44968774296845915
-1.164470439263214 -0.5029565855875923
-1.106105847837786 -0.5295910068971589
-1.193652734975928 -0.5162737962423756
-1.106105847837786 -0.5162737962423756
-0.9310120735615022 -0.4763221642780257
-0.9310120735615022 -0.489639374932809
-1.0185589606996441 -0.5162737962423756
-1.0185589606996441 -0.5295910068971589
-1.047741256412358 -0.5295910068971589
-1.076923552125072 -0.5029565855875923
-0.9018297778487881 -0.46300495362324245
-0.7559182992852183 -0.4763221642780257
-0.7559182992852183 -0.5295910068971589
-0.8142828907106463 -0.5828598495162921
-0.8434651864233602 -0.6094942708258586
-0.8142828907106463 -0.5562254282067255
-0.7851005949979323 -0.5029565855875923
-0.6100068207216484 -0.489639374932809
-0.6975537078597903 -0.5162737962423756
-0.7559182992852183 -0.5961770601710753
-0.8142828907106463 -0.6094942708258586
-0.8726474821360742 -0.5828598495162921
-0.7851005949979323 -0.5562254282067255
-0.6683714121470764 -0.5961770601710753
-0.7267360035725043 -0.5695426388615088
-0.8142828907106463 -0.6094942708258586
-0.8726474821360742 -0.5961770601710753
-0.8434651864233602 -0.5695426388615088
-0.7559182992852183 -0.5295910068971589
-0.7851005949979323 -0.5162737962423756
-0.7559182992852183 -0.5695426388615088
-0.8434651864233602 -0.6094942708258586
-0.8434651864233602 -0.6361286921354252
-0.8142828907106463 -0.6228114814806419
-0.7267360035725043 -0.5828598495162921
-0.6391891164343624 -0.5961770601710753
-0.6391891164343624 -0.6094942708258586
-0.6391891164343624 -0.676080324099775
-0.7559182992852183 -0.6494459027902085
-0.8434651864233602 -0.6228114814806419
-0.6683714121470764 -0.6228114814806419
-0.5516422292962204 -0.5961770601710753
-0.4932776378707925 -0.6361286921354252
-0.5808245250089344 -0.6893975347545583
-0.6100068207216484 -0.7027147454093416
-0.5808245250089344 -0.6494459027902085
-0.6100068207216484 -0.6094942708258586
-0.5224599335835065 -0.5828598495162921
-0.4349130464453645 -0.6094942708258586
-0.5224599335835065 -0.676080324099775
-0.4349130464453645 -0.716031956064125
-0.4932776378707925 -0.6893975347545583
-0.4349130464453645 -0.6494459027902085
-0.4349130464453645 -0.6494459027902085
-0.5224599335835065 -0.6494459027902085
-0.5224599335835065 -0.716031956064125
-0.4932776378707925 -0.7426663773736916
-0.37654845501993656 -0.676080324099775
-0.2014546807436527 -0.6494459027902085
-0.23063697645636666 -0.6494459027902085
-0.2014546807436527 -0.6627631134449918
-0.23063697645636666 -0.6627631134449918
-0.25981927216908063 -0.6094942708258586
-0.23063697645636666 -0.6228114814806419
-0.05554320218008279 -0.5562254282067255
0.0028213892453451675 -0.5429082175519422
0.061185980670773125 -0.5429082175519422
0.03200368495805914 -0.5562254282067255
-0.02636090646736881 -0.5029565855875923
0.03200368495805914 -0.4097361110041093
0.20709745923434303 -0.32983284707540955
0.41137352922334086 -0.2765640044562764
0.46973812064876885 -0.2499295831467098
0.46973812064876885 -0.28988121511105963
0.44055582493605483 -0.2232951618371432
0.46973812064876885 -0.14339189790844345
0.5572850077869108 -0.023537002015393844
0.5572850077869108 0.01641462994895603
0.5572850077869108 0.04304905125852261
0.5281027120741968 0.08300068322287249
0.5572850077869108 0.12295231518722236
0.46973812064876885 0.2561244217350553
0.6740141906377667 0.3626621069733216
0.7031964863504807 0.336027685663755
0.7615610777759086 0.336027685663755
0.6448318949250527 0.336027685663755
0.41137352922334086 0.3892965282828882
0.41137352922334086 0.4425653709020213
0.236279754947057 0.4558825815568046
0.26546205065977097 0.4425653709020213
0.32382664208519896 0.3892965282828882
0.20709745923434303 0.336027685663755
0.14873286780891506 0.28275884304462184
0.17791516352162903 0.3093932643541884
0.11955057209620108 0.26944163238983854
0.17791516352162903 0.28275884304462184
0.11955057209620108 0.29607605369940515
-0.05554320218008279 0.2161727897707054
-0.05554320218008279 0.22949000042548867
-0.14309008931822473 0.26944163238983854
-0.08472549789279676 0.336027685663755
0.03200368495805914 0.3759793176281049
-0.02636090646736881 0.29607605369940515
-0.14309008931822473 0.29607605369940515
-0.2014546807436527 0.2561244217350553
-0.08472549789279676 0.29607605369940515
0.061185980670773125 0.336027685663755
0.11955057209620108 0.3093932643541884
0.0028213892453451675 0.26944163238983854
-0.2014546807436527 0.16290394715157222
-0.3473661593072226 0.13626952584200563
-0.2890015678817946 0.1895383684611388
-0.1722723850309387 0.29607605369940515
-0.05554320218008279 0.29607605369940515
-0.02636090646736881 0.3227104750089717
-0.08472549789279676 0.28275884304462184
-0.14309008931822473 0.29607605369940515
-0.08472549789279676 0.2561244217350553
-0.11390779360551075 0.2561244217350553
-0.11390779360551075 0.2161727897707054
-0.14309008931822473 0.14958673649678894
-0.23063697645636666 0.12295231518722236
-0.23063697645636666 0.1895383684611388
-0.14309008931822473 0.24280721108027198
-0.02636090646736881 0.29607605369940515
0.0028213892453451675 0.3093932643541884
0.0903682763834871 0.2561244217350553
0.0028213892453451675 0.17622115780635553
-0.11390779360551075 0.12295231518722236
0.03200368495805914 0.20285557911592209
0.0028213892453451675 0.26944163238983854
0.0903682763834871 0.26944163238983854
0.061185980670773125 0.26944163238983854
-0.11390779360551075 0.24280721108027198
-0.1722723850309387 0.2161727897707054
-0.05554320218008279 0.24280721108027198
0.0903682763834871 0.24280721108027198
0.11955057209620108 0.2561244217350553
0.061185980670773125 0.20285557911592209
-0.11390779360551075 0.12295231518722236
-0.1722723850309387 0.13626952584200563
-0.1722723850309387 0.22949000042548867
-0.08472549789279676 0.3227104750089717
0.061185980670773125 0.3626621069733216
0.11955057209620108 0.3493448963185383
0.20709745923434303 0.28275884304462184
0.061185980670773125 0.26944163238983854
0.0028213892453451675 0.26944163238983854
-0.02636090646736881 0.3093932643541884
0.03200368495805914 0.2561244217350553
0.17791516352162903 0.24280721108027198
0.11955057209620108 0.20285557911592209
0.061185980670773125 0.1895383684611388
0.0903682763834871 0.17622115780635553
0.17791516352162903 0.22949000042548867
0.17791516352162903 0.28275884304462184
0.14873286780891506 0.3093932643541884
0.03200368495805914 0.29607605369940515
0.0028213892453451675 0.2561244217350553
0.061185980670773125 0.2561244217350553
0.14873286780891506 0.2161727897707054
0.17791516352162903 0.20285557911592209
0.03200368495805914 0.17622115780635553
-0.08472549789279676 0.09631789387765577
-0.1722723850309387 0.09631789387765577
0.0028213892453451675 0.10963510453243906
0.0903682763834871 0.14958673649678894
0.17791516352162903 0.1895383684611388
0.20709745923434303 0.17622115780635553
0.061185980670773125 0.14958673649678894
-0.08472549789279676 0.20285557911592209
-0.08472549789279676 0.2161727897707054
-0.02636090646736881 0.24280721108027198
0.11955057209620108 0.2161727897707054
0.061185980670773125 0.2161727897707054
-0.08472549789279676 0.2561244217350553
-0.05554320218008279 0.24280721108027198
0.03200368495805914 0.22949000042548867
0.17791516352162903 0.2161727897707054
0.26546205065977097 0.1895383684611388
0.14873286780891506 0.16290394715157222
0.0028213892453451675 0.17622115780635553
-0.05554320218008279 0.20285557911592209
-0.02636090646736881 0.28275884304462184
0.061185980670773125 0.29607605369940515
0.236279754947057 0.22949000042548867
0.20709745923434303 0.14958673649678894
0.061185980670773125 0.10963510453243906
0.061185980670773125 0.13626952584200563
-0.02636090646736881 0.20285557911592209
0.03200368495805914 0.22949000042548867
0.14873286780891506 0.20285557911592209
0.0903682763834871 0.16290394715157222
0.03200368495805914 0.1895383684611388
-0.02636090646736881 0.22949000042548867
0.03200368495805914 0.336027685663755
0.20709745923434303 0.3759793176281049
0.32382664208519896 0.3227104750089717
0.32382664208519896 0.22949000042548867
0.236279754947057 0.10963510453243906
0.11955057209620108 0.10963510453243906
0.11955057209620108 0.14958673649678894
0.17791516352162903 0.1895383684611388
0.20709745923434303 0.14958673649678894
0.0903682763834871 0.12295231518722236
0.0903682763834871 0.12295231518722236
-0.11390779360551075 0.17622115780635553
0.11955057209620108 0.3093932643541884
0.32382664208519896 0.41593094959245475
0.5281027120741968 0.3626621069733216
0.6156495992123387 0.3093932643541884
0.46973812064876885 0.2161727897707054
0.41137352922334086 0.1895383684611388
0.3530089377979129 0.17622115780635553
0.3530089377979129 0.20285557911592209
0.44055582493605483 0.20285557911592209
0.46973812064876885 0.22949000042548867
0.41137352922334086 0.16290394715157222
0.41137352922334086 0.2161727897707054
0.4989204163614828 0.24280721108027198
0.6740141906377667 0.336027685663755
0.7907433734886226 0.29607605369940515
0.7323787820631946 0.29607605369940515
0.6740141906377667 0.2161727897707054
0.5572850077869108 0.20285557911592209
0.6156495992123387 0.22949000042548867
0.5864673034996247 0.28275884304462184
0.4989204163614828 0.26944163238983854
0.41137352922334086 0.20285557911592209
0.3530089377979129 0.16290394715157222
0.32382664208519896 0.26944163238983854
0.32382664208519896 0.336027685663755
0.44055582493605483 0.3626621069733216
0.44055582493605483 0.29607605369940515
0.4989204163614828 0.22949000042548867
0.3821912335106269 0.20285557911592209
0.29464434637248493 0.26944163238983854
0.3530089377979129 0.3759793176281049
0.5572850077869108 0.40261373893767144
0.6448318949250527 0.3093932643541884
0.6156495992123387 0.22949000042548867
0.44055582493605483 0.09631789387765577
0.26546205065977097 0.04304905125852261
0.26546205065977097 0.056366261913305904
0.20709745923434303 0.0696834725680892
0.17791516352162903 0.01641462994895603
0.17791516352162903 0.01641462994895603
0.11955057209620108 -0.023537002015393844
0.14873286780891506 0.02973184060373932
0.0903682763834871 0.08300068322287249
0.32382664208519896 0.22949000042548867
0.44055582493605483 0.2561244217350553
0.46973812064876885 0.26944163238983854
0.32382664208519896 0.1895383684611388
0.17791516352162903 0.09631789387765577
0.17791516352162903 0.056366261913305904
0.17791516352162903 0.01641462994895603
0.3530089377979129 0.04304905125852261
0.29464434637248493 0.09631789387765577
0.236279754947057 0.09631789387765577
0.17791516352162903 0.056366261913305904
0.236279754947057 0.01641462994895603
0.26546205065977097 0.04304905125852261
0.20709745923434303 0.01641462994895603
0.17791516352162903 0.01641462994895603
0.20709745923434303 -0.010219791360610552
0.20709745923434303 -0.023537002015393844
0.20709745923434303 0.02973184060373932
0.236279754947057 0.056366261913305904
0.236279754947057 0.04304905125852261
0.32382664208519896 0.01641462994895603
0.20709745923434303 0.04304905125852261
0.236279754947057 0.0696834725680892
0.29464434637248493 0.16290394715157222
0.3530089377979129 0.20285557911592209
0.5281027120741968 0.2161727897707054
0.5281027120741968 0.28275884304462184
0.4989204163614828 0.3227104750089717
0.6448318949250527 0.4425653709020213
0.8491079649140506 0.6023718987594208
1.1409309220411903 0.8021300585811701
1.520300766306472 0.9752537970933529
1.666212244870042 1.201646378224669
1.637029949157328 1.5079422232846846
1.637029949157328 1.987361806856883
1.7245768362954699 2.520050233048215
2.1331289762734658 3.0660558698943294
2.3957696376878914 3.505523821502178
2.5708634119641753 3.91835735180046
2.3665873419751775 4.277922039479609
2.2790404548370353 4.677438359123108
2.2790404548370353 5.196809574659656
2.5416811162514614 5.702863579541421
3.2128739176438827 6.035793845911003
3.8840667190363045 6.02247663525622
4.43853033757787 5.6096431049579385
4.817900181843152 4.730707201742241
4.73035329470501 3.4389377682282616
4.088342789025302 2.3735609158455984
2.629228003389603 1.6411143298325175
0.8199256692013366 1.1883291675698857
-0.5808245250089344 0.7754956372716036
-1.164470439263214 0.3759793176281049
-1.2520173264013559 0.12295231518722236
-1.222835030688642 0.04304905125852261
-1.106105847837786 -0.023537002015393844
-0.7559182992852183 -0.11675747659887688
-0.3181838635945086 -0.15670910856322676
-0.02636090646736881 -0.2099779511823599
0.11955057209620108 -0.19666074052757662
0.236279754947057 -0.2499295831467098
0.29464434637248493 -0.2499295831467098
0.26546205065977097 -0.32983284707540955
0.29464434637248493 -0.3697844790397594
0.20709745923434303 -0.396418900349326
0.20709745923434303 -0.3564672683849761
0.26546205065977097 -0.2765640044562764
0.41137352922334086 -0.2632467938014931
0.3821912335106269 -0.3564672683849761
0.32382664208519896 -0.43637053231367584
0.29464434637248493 -0.5029565855875923
0.3530089377979129 -0.44968774296845915
0.41137352922334086 -0.44968774296845915
0.5572850077869108 -0.5029565855875923
0.4989204163614828 -0.5562254282067255
0.44055582493605483 -0.5961770601710753
0.3821912335106269 -0.6094942708258586
0.46973812064876885 -0.5295910068971589
0.5281027120741968 -0.44968774296845915
0.5864673034996247 -0.46300495362324245
0.5572850077869108 -0.5429082175519422
0.44055582493605483 -0.6228114814806419
0.46973812064876885 -0.6494459027902085
0.46973812064876885 -0.5961770601710753
0.46973812064876885 -0.6494459027902085
0.5281027120741968 -0.7293491667189083
0.5281027120741968 -0.7426663773736916
0.46973812064876885 -0.7559835880284749
0.41137352922334086 -0.7826180093380414
0.44055582493605483 -0.7959352199928247
0.44055582493605483 -0.7693007986832581
0.5281027120741968 -0.7693007986832581
0.4989204163614828 -0.7559835880284749
0.4989204163614828 -0.7426663773736916
0.46973812064876885 -0.716031956064125
0.44055582493605483 -0.716031956064125
0.46973812064876885 -0.676080324099775
0.5281027120741968 -0.7693007986832581
0.46973812064876885 -0.7959352199928247
0.44055582493605483 -0.8891556945763077
0.3821912335106269 -0.7959352199928247
0.3821912335106269 -0.7293491667189083
0.6156495992123387 -0.7293491667189083
0.6156495992123387 -0.809252430647608
0.5281027120741968 -0.9157901158858743
0.3821912335106269 -1.035645011778924
0.236279754947057 -1.0223278011241406
0.29464434637248493 -0.942424537195441
0.46973812064876885 -0.8891556945763077
0.5281027120741968 -0.8358868519571746
0.5572850077869108 -0.8758384839215244
0.46973812064876885 -0.9157901158858743
0.5281027120741968 -0.942424537195441
0.5864673034996247 -0.902472905231091
0.5864673034996247 -0.7959352199928247
0.6448318949250527 -0.8492040626119579
0.6740141906377667 -0.942424537195441
0.6448318949250527 -0.9956933798145741
0.5864673034996247 -1.0223278011241406
0.4989204163614828 -1.0090105904693574
0.6156495992123387 -0.9823761691597908
0.7323787820631946 -0.9690589585050075
0.8491079649140506 -0.9690589585050075
0.8491079649140506 -0.9823761691597908
0.7907433734886226 -0.9823761691597908
0.8199256692013366 -0.9157901158858743
0.8782902606267645 -0.8625212732667411
0.9950194434776205 -0.8625212732667411
1.0242017391903344 -0.7959352199928247
1.0825663306157625 -0.7693007986832581
1.1409309220411903 -0.716031956064125
1.2868424006047603 -0.676080324099775
1.3452069920301881 -0.7027147454093416
1.3160246963174742 -0.716031956064125
1.3452069920301881 -0.6893975347545583
1.3452069920301881 -0.6094942708258586
1.4035715834556162 -0.4763221642780257
1.549483062019186 -0.4230533216588926
1.753759132008184 -0.4097361110041093
1.8996706105717538 -0.4097361110041093
1.8413060191463257 -0.396418900349326
1.695394540582756 -0.3564672683849761
1.607847653444614 -0.28988121511105963
1.607847653444614 -0.15670910856322676
1.637029949157328 -0.03685421267017713
1.8413060191463257 0.04304905125852261
1.782941427720898 0.04304905125852261
1.7245768362954699 -0.010219791360610552
1.5786653577319 -0.14339189790844345
1.4619361748810442 -0.14339189790844345
1.4911184705937581 -0.03685421267017713
1.4911184705937581 -0.010219791360610552
1.3743892877429023 -0.11675747659887688
1.2868424006047603 -0.18334352987279334
1.0242017391903344 -0.13007468725366017
0.9074725563394785 -0.06348863397974372
0.9366548520521925 -0.010219791360610552
1.0242017391903344 -0.050171423324960426
0.9950194434776205 -0.14339189790844345
0.8491079649140506 -0.2632467938014931
0.7031964863504807 -0.2632467938014931
0.7323787820631946 -0.2232951618371432
0.7323787820631946 -0.18334352987279334
0.7907433734886226 -0.13007468725366017
0.6448318949250527 -0.17002631921801004
0.5281027120741968 -0.2099779511823599
0.4989204163614828 -0.18334352987279334
0.5281027120741968 -0.15670910856322676
0.6156495992123387 -0.13007468725366017
0.5572850077869108 -0.14339189790844345
0.44055582493605483 -0.14339189790844345
0.44055582493605483 -0.2232951618371432
0.46973812064876885 -0.31651563642062625
0.4989204163614828 -0.28988121511105963
0.46973812064876885 -0.18334352987279334
0.46973812064876885 -0.17002631921801004
0.3821912335106269 -0.18334352987279334
0.41137352922334086 -0.2366123724919265
0.32382664208519896 -0.2499295831467098
0.41137352922334086 -0.2099779511823599
0.46973812064876885 -0.11675747659887688
0.4989204163614828 -0.2499295831467098
0.46973812064876885 -0.3697844790397594
0.3821912335106269 -0.4097361110041093
0.17791516352162903 -0.2765640044562764
0.17791516352162903 -0.09012305528931029
0.29464434637248493 -0.076805844634527
0.44055582493605483 -0.2099779511823599
0.5281027120741968 -0.3431500577301928
0.41137352922334086 -0.3697844790397594
0.29464434637248493 -0.31651563642062625
0.26546205065977097 -0.18334352987279334
0.44055582493605483 -0.17002631921801004
0.5572850077869108 -0.2099779511823599
0.4989204163614828 -0.3564672683849761
0.20709745923434303 -0.44968774296845915
0.11955057209620108 -0.4230533216588926
0.14873286780891506 -0.28988121511105963
0.26546205065977097 -0.2232951618371432
0.3530089377979129 -0.28988121511105963
0.26546205065977097 -0.3431500577301928
0.14873286780891506 -0.3564672683849761
0.236279754947057 -0.2632467938014931
0.29464434637248493 -0.2366123724919265
0.32382664208519896 -0.14339189790844345
0.32382664208519896 -0.14339189790844345
0.32382664208519896 -0.2765640044562764
0.26546205065977097 -0.4230533216588926
0.20709745923434303 -0.3564672683849761
0.17791516352162903 -0.2632467938014931
0.26546205065977097 -0.17002631921801004
0.3530089377979129 -0.19666074052757662
0.26546205065977097 -0.2632467938014931
0.26546205065977097 -0.2632467938014931
0.17791516352162903 -0.2499295831467098
0.20709745923434303 -0.2499295831467098
0.236279754947057 -0.2765640044562764
0.236279754947057 -0.32983284707540955
0.17791516352162903 -0.31651563642062625
0.0903682763834871 -0.2632467938014931
0.03200368495805914 -0.2765640044562764
0.0903682763834871 -0.3431500577301928
0.26546205065977097 -0.3564672683849761
0.20709745923434303 -0.31651563642062625
0.14873286780891506 -0.30319842576584294
0.061185980670773125 -0.3564672683849761
-0.02636090646736881 -0.38310168969454267
-0.02636090646736881 -0.30319842576584294
0.03200368495805914 -0.2632467938014931
0.11955057209620108 -0.31651563642062625
0.0903682763834871 -0.3564672683849761
-0.08472549789279676 -0.4097361110041093
-0.11390779360551075 -0.3564672683849761
-0.14309008931822473 -0.2232951618371432
-0.08472549789279676 -0.19666074052757662
0.0028213892453451675 -0.2366123724919265
-0.05554320218008279 -0.3697844790397594
-0.23063697645636666 -0.44968774296845915
-0.2890015678817946 -0.3697844790397594
-0.23063697645636666 -0.2765640044562764
-0.1722723850309387 -0.19666074052757662
-0.08472549789279676 -0.2099779511823599
-0.08472549789279676 -0.3431500577301928
-0.11390779360551075 -0.38310168969454267
-0.23063697645636666 -0.3697844790397594
-0.3181838635945086 -0.3431500577301928
-0.25981927216908063 -0.2765640044562764
-0.2890015678817946 -0.32983284707540955
-0.37654845501993656 -0.3564672683849761
-0.37654845501993656 -0.31651563642062625
-0.4057307507326505 -0.2765640044562764
-0.3473661593072226 -0.28988121511105963
-0.3181838635945086 -0.3431500577301928
-0.2890015678817946 -0.38310168969454267
-0.2890015678817946 -0.396418900349326
-0.4349130464453645 -0.43637053231367584
-0.4932776378707925 -0.38310168969454267
-0.4640953421580785 -0.32983284707540955
-0.4349130464453645 -0.32983284707540955
-0.3473661593072226 -0.3564672683849761
-0.3181838635945086 -0.43637053231367584
-0.4640953421580785 -0.46300495362324245
-0.6100068207216484 -0.4230533216588926
-0.4932776378707925 -0.3564672683849761
-0.4640953421580785 -0.2632467938014931
-0.4057307507326505 -0.2632467938014931
-0.4057307507326505 -0.2099779511823599
-0.5224599335835065 -0.2499295831467098
-0.6100068207216484 -0.30319842576584294
-0.5808245250089344 -0.3697844790397594
-0.4932776378707925 -0.396418900349326
-0.5516422292962204 -0.3564672683849761
-0.5516422292962204 -0.3431500577301928
-0.6100068207216484 -0.3564672683849761
-0.6975537078597903 -0.3431500577301928
-0.4349130464453645 -0.3431500577301928
-0.2890015678817946 -0.31651563642062625
-0.3181838635945086 -0.30319842576584294
-0.3473661593072226 -0.2366123724919265
-0.5224599335835065 -0.19666074052757662
-0.4640953421580785 -0.19666074052757662
-0.4349130464453645 -0.19666074052757662
-0.23063697645636666 -0.2632467938014931
-0.1722723850309387 -0.28988121511105963
-0.1722723850309387 -0.2499295831467098
-0.3181838635945086 -0.17002631921801004
-0.4057307507326505 -0.13007468725366017
-0.25981927216908063 -0.11675747659887688
-0.1722723850309387 -0.10344026594409358
-0.14309008931822473 -0.076805844634527
-0.1722723850309387 -0.09012305528931029
-0.23063697645636666 -0.09012305528931029
-0.37654845501993656 -0.11675747659887688
-0.3473661593072226 -0.2499295831467098
-0.3181838635945086 -0.32983284707540955
-0.4057307507326505 -0.396418900349326
-0.5516422292962204 -0.38310168969454267
-0.6975537078597903 -0.32983284707540955
-0.7267360035725043 -0.2499295831467098
-0.7559182992852183 -0.17002631921801004
-0.5808245250089344 -0.11675747659887688
-0.4932776378707925 -0.10344026594409358
-0.5224599335835065 -0.15670910856322676
-0.5808245250089344 -0.2232951618371432
-0.6100068207216484 -0.2366123724919265
-0.5808245250089344 -0.2499295831467098
-0.4640953421580785 -0.18334352987279334
-0.4349130464453645 -0.14339189790844345
-0.4640953421580785 -0.18334352987279334
-0.5224599335835065 -0.2499295831467098
-0.6391891164343624 -0.2765640044562764
-0.7851005949979323 -0.2765640044562764
-0.8726474821360742 -0.2765640044562764
-0.8434651864233602 -0.2499295831467098
-0.8434651864233602 -0.2632467938014931
-0.8434651864233602 -0.32983284707540955
-0.8726474821360742 -0.31651563642062625
-0.8726474821360742 -0.31651563642062625
-0.9601943692742162 -0.2366123724919265
-0.9893766649869301 -0.28988121511105963
-1.0185589606996441 -0.3697844790397594
-1.164470439263214 -0.4230533216588926
-1.222835030688642 -0.32983284707540955
-1.164470439263214 -0.2632467938014931
-1.076923552125072 -0.19666074052757662
-0.9601943692742162 -0.28988121511105963
-1.076923552125072 -0.3697844790397594
-1.1352881435505 -0.4230533216588926
-1.222835030688642 -0.38310168969454267
-1.310381917826784 -0.30319842576584294
-1.310381917826784 -0.2499295831467098
-1.193652734975928 -0.2499295831467098
-1.076923552125072 -0.28988121511105963
-1.076923552125072 -0.30319842576584294
-1.2520173264013559 -0.31651563642062625
-1.193652734975928 -0.2499295831467098
-1.164470439263214 -0.2765640044562764
-1.047741256412358 -0.2765640044562764
-1.076923552125072 -0.19666074052757662
-1.2520173264013559 -0.13007468725366017
-1.28119962211407 -0.050171423324960426
-1.193652734975928 -0.050171423324960426
-0.9893766649869301 -0.023537002015393844
-0.8142828907106463 -0.06348863397974372
-0.8726474821360742 0.02973184060373932
-0.7559182992852183 0.16290394715157222
-0.6391891164343624 0.3759793176281049
-0.4640953421580785 0.6290063200689874
-0.23063697645636666 0.8820333225098699
-0.1722723850309387 1.2282807995342355
-0.2890015678817946 1.574528276558601
-0.37654845501993656 1.987361806856883
-0.5224599335835065 2.4534641797742984
-0.5224599335835065 2.86629771007258
-0.6975537078597903 3.2924484510256455
-0.9018297778487881 3.6120615067404445
-1.28119962211407 3.95830898376481
-1.4854756921030678 4.451045777991792
-1.4271111006776398 4.943782572218773
-0.8726474821360742 5.303347259897922
-0.05554320218008279 5.343298891862272
0.8199256692013366 4.783976044361374
1.43275387916833 3.678647560014361
1.3160246963174742 2.306974862571682
0.5281027120741968 1.294866852808152
-1.047741256412358 0.6822751626881206
-2.302579972059059 0.3493448963185383
-2.9154081820260527 0.04304905125852261
-3.0321373648769088 -0.18334352987279334
-3.002955069164195 -0.28988121511105963
-2.7694967034624827 -0.30319842576584294
-2.331762267771773 -0.28988121511105963
-1.8648455363683496 -0.2366123724919265
-1.3687465092522118 -0.2366123724919265
-1.4271111006776398 -0.3431500577301928
-1.3687465092522118 -0.5162737962423756
-1.310381917826784 -0.6494459027902085
-1.3395642135394978 -0.7293491667189083
-1.3395642135394978 -0.6094942708258586
-1.3979288049649259 -0.5961770601710753
-1.3979288049649259 -0.6494459027902085
-1.4562933963903537 -0.7559835880284749
-1.4562933963903537 -0.7826180093380414
-1.4854756921030678 -0.716031956064125
-1.4271111006776398 -0.5429082175519422
-1.3395642135394978 -0.5162737962423756
-1.222835030688642 -0.5429082175519422
-1.28119962211407 -0.5429082175519422
-1.3395642135394978 -0.5961770601710753
-1.2520173264013559 -0.5695426388615088
-1.222835030688642 -0.5429082175519422
-1.193652734975928 -0.5828598495162921
-1.310381917826784 -0.6361286921354252
-1.4271111006776398 -0.6228114814806419
-1.3687465092522118 -0.5961770601710753
-1.3395642135394978 -0.5961770601710753
-1.1352881435505 -0.5695426388615088
-1.047741256412358 -0.5695426388615088
-1.106105847837786 -0.5429082175519422
-1.193652734975928 -0.6094942708258586
-1.2520173264013559 -0.716031956064125
-1.1352881435505 -0.809252430647608
-1.106105847837786 -0.7826180093380414
-1.193652734975928 -0.7027147454093416
-1.28119962211407 -0.716031956064125
-1.3687465092522118 -0.7693007986832581
-1.2520173264013559 -0.7826180093380414
-1.164470439263214 -0.7027147454093416
-1.1352881435505 -0.6361286921354252
-1.106105847837786 -0.6627631134449918
-1.222835030688642 -0.716031956064125
-1.28119962211407 -0.676080324099775
-1.2520173264013559 -0.6627631134449918
-1.076923552125072 -0.6228114814806419
-1.047741256412358 -0.6094942708258586
-1.076923552125072 -0.716031956064125
-1.047741256412358 -0.8225696413023913
-1.164470439263214 -0.902472905231091
-1.2520173264013559 -0.9157901158858743
-1.2520173264013559 -0.9557417478502241
-1.222835030688642 -0.8758384839215244
-1.106105847837786 -0.8492040626119579
-1.106105847837786 -0.8492040626119579
-1.164470439263214 -0.8225696413023913
-1.222835030688642 -0.7426663773736916
-1.28119962211407 -0.6494459027902085
-0.9601943692742162 -0.6627631134449918
-0.8434651864233602 -0.7693007986832581
-0.9310120735615022 -0.9690589585050075
-1.0185589606996441 -1.0090105904693574
-1.193652734975928 -0.8358868519571746
-1.2520173264013559 -0.7293491667189083
-1.0185589606996441 -0.6361286921354252
-0.8142828907106463 -0.7027147454093416
-0.7559182992852183 -0.8492040626119579
-0.9018297778487881 -0.9557417478502241
-1.106105847837786 -0.942424537195441
-1.106105847837786 -0.8225696413023913
-0.9310120735615022 -0.716031956064125
-0.8142828907106463 -0.6893975347545583
-0.8434651864233602 -0.7559835880284749
-0.9018297778487881 -0.8758384839215244
-0.9601943692742162 -0.8492040626119579
-0.9893766649869301 -0.8225696413023913
-0.7851005949979323 -0.7559835880284749
-0.6975537078597903 -0.6627631134449918
-0.6975537078597903 -0.5828598495162921
-0.7267360035725043 -0.5295910068971589
-0.7267360035725043 -0.5695426388615088
-0.5808245250089344 -0.5295910068971589
-0.5224599335835065 -0.43637053231367584
-0.6100068207216484 -0.3564672683849761
-0.6100068207216484 -0.32983284707540955
-0.6391891164343624 -0.3697844790397594
-0.6683714121470764 -0.38310168969454267
-0.6391891164343624 -0.28988121511105963
-0.5808245250089344 -0.18334352987279334
-0.5516422292962204 -0.076805844634527
-0.5808245250089344 -0.050171423324960426
-0.5224599335835065 -0.06348863397974372
-0.6100068207216484 -0.023537002015393844
-0.6100068207216484 -0.03685421267017713
-0.6683714121470764 -0.03685421267017713
-0.6683714121470764 -0.03685421267017713
-0.7851005949979323 -0.03685421267017713
-1.0185589606996441 -0.076805844634527
-1.076923552125072 -0.15670910856322676
-1.1352881435505 -0.13007468725366017
-1.193652734975928 -0.023537002015393844
-1.28119962211407 0.04304905125852261
-1.4562933963903537 0.056366261913305904
-1.5146579878157818 -0.010219791360610552
-1.5438402835284957 -0.010219791360610552
-1.4854756921030678 -0.023537002015393844
-1.4271111006776398 0.01641462994895603
-1.4854756921030678 0.003097419294172739
-1.5438402835284957 -0.06348863397974372
-1.6605694663793515 -0.076805844634527
-1.7772986492302076 -0.11675747659887688
-1.8356632406556355 -0.03685421267017713
-1.6605694663793515 0.003097419294172739
-1.6313871706666376 -0.06348863397974372
-1.6897517620920657 -0.14339189790844345
-1.8064809449429216 -0.2366123724919265
-1.9523924235064913 -0.15670910856322676
-2.0691216063573474 -0.09012305528931029
-1.8940278320810635 -0.06348863397974372
-1.8064809449429216 -0.11675747659887688
-1.7772986492302076 -0.15670910856322676
-1.8648455363683496 -0.19666074052757662
-1.8940278320810635 -0.2099779511823599
-1.8356632406556355 -0.19666074052757662
-1.8940278320810635 -0.11675747659887688
-1.8648455363683496 -0.09012305528931029
-1.9232101277937774 -0.10344026594409358
-1.9523924235064913 -0.2099779511823599
-1.9232101277937774 -0.2499295831467098
-1.9232101277937774 -0.2232951618371432
-2.0107570149319196 -0.14339189790844345
-1.9815747192192055 -0.11675747659887688
-2.0691216063573474 -0.11675747659887688
-2.0399393106446335 -0.17002631921801004
-2.0983039020700613 -0.2765640044562764
-2.0399393106446335 -0.30319842576584294
-2.0691216063573474 -0.28988121511105963
-2.0399393106446335 -0.17002631921801004
-1.9815747192192055 -0.10344026594409358
-1.9523924235064913 -0.17002631921801004
-1.8648455363683496 -0.2366123724919265
-1.8356632406556355 -0.28988121511105963
-1.7481163535174935 -0.14339189790844345
-1.8064809449429216 -0.010219791360610552
-1.7772986492302076 -0.023537002015393844
-1.8648455363683496 -0.10344026594409358
-1.8356632406556355 -0.11675747659887688
-1.8648455363683496 -0.06348863397974372
-1.7189340578047796 0.003097419294172739
-1.6605694663793515 0.02973184060373932
-1.6897517620920657 -0.03685421267017713
-1.8064809449429216 -0.11675747659887688
-1.8064809449429216 -0.09012305528931029
-1.8648455363683496 -0.050171423324960426
-1.7772986492302076 -0.03685421267017713
-1.6897517620920657 -0.19666074052757662
-1.7772986492302076 -0.2366123724919265
-1.7772986492302076 -0.14339189790844345
-1.8648455363683496 -0.06348863397974372
-1.8064809449429216 0.01641462994895603
-1.6605694663793515 0.0696834725680892
-1.5730225792412098 -0.03685421267017713
-1.5438402835284957 -0.076805844634527
-1.6897517620920657 -0.023537002015393844
-1.8064809449429216 0.04304905125852261
-1.6897517620920657 0.02973184060373932
-1.4562933963903537 0.08300068322287249
-1.6313871706666376 0.09631789387765577
-1.5730225792412098 0.003097419294172739
-1.7189340578047796 -0.11675747659887688
-1.8064809449429216 -0.06348863397974372
-1.8648455363683496 -0.03685421267017713
-1.6897517620920657 0.01641462994895603
-1.6022048749539237 -0.023537002015393844
-1.6313871706666376 -0.09012305528931029
-1.7772986492302076 -0.14339189790844345
-1.8356632406556355 -0.11675747659887688
-1.8064809449429216 -0.03685421267017713
-1.7481163535174935 0.02973184060373932
-1.7481163535174935 0.02973184060373932
-1.8648455363683496 0.01641462994895603
-1.9232101277937774 0.003097419294172739
-1.8356632406556355 -0.06348863397974372
-1.7189340578047796 -0.18334352987279334
-1.7481163535174935 -0.17002631921801004
-1.8064809449429216 -0.09012305528931029
-1.8940278320810635 0.01641462994895603
-1.9523924235064913 0.04304905125852261
-1.8940278320810635 -0.03685421267017713
-1.8356632406556355 0.003097419294172739
-1.6605694663793515 0.08300068322287249
-1.6605694663793515 0.056366261913305904
-1.7481163535174935 -0.09012305528931029
-1.7189340578047796 -0.15670910856322676
-1.8356632406556355 -0.14339189790844345
-1.8356632406556355 -0.023537002015393844
-1.9232101277937774 0.0696834725680892
-1.8648455363683496 0.08300068322287249
-1.6897517620920657 0.02973184060373932
-1.7481163535174935 0.003097419294172739
-1.7481163535174935 -0.050171423324960426
-1.8064809449429216 -0.03685421267017713
-1.7772986492302076 -0.023537002015393844
-1.7481163535174935 -0.11675747659887688
-1.8064809449429216 -0.11675747659887688
-1.7481163535174935 -0.06348863397974372
-1.8356632406556355 -0.03685421267017713
-1.7481163535174935 0.01641462994895603
-1.6897517620920657 0.04304905125852261
-1.6022048749539237 -0.010219791360610552
-1.6605694663793515 -0.050171423324960426
-1.7481163535174935 -0.03685421267017713
-1.8356632406556355 0.01641462994895603
-1.5438402835284957 0.02973184060373932
-1.5438402835284957 0.10963510453243906
-1.5146579878157818 0.02973184060373932
-1.4271111006776398 -0.09012305528931029
-1.4271111006776398 -0.10344026594409358
-1.4854756921030678 -0.010219791360610552
-1.4271111006776398 0.12295231518722236
-1.3979288049649259 0.2161727897707054
-1.222835030688642 0.1895383684611388
-1.2520173264013559 0.13626952584200563
-1.28119962211407 0.056366261913305904
-1.222835030688642 0.056366261913305904
-1.193652734975928 0.17622115780635553
-1.2520173264013559 0.29607605369940515
-1.2520173264013559 0.2561244217350553
-1.28119962211407 0.1895383684611388
-1.3687465092522118 0.16290394715157222
-1.3979288049649259 0.12295231518722236
-1.3979288049649259 0.14958673649678894
-1.3395642135394978 0.14958673649678894
-1.3395642135394978 0.16290394715157222
-1.4562933963903537 0.16290394715157222
-1.4562933963903537 0.12295231518722236
-1.4271111006776398 0.12295231518722236
-1.3687465092522118 0.16290394715157222
-1.310381917826784 0.2561244217350553
-1.4271111006776398 0.3093932643541884
-1.3395642135394978 0.3493448963185383
-1.310381917826784 0.28275884304462184
-1.2520173264013559 0.2161727897707054
-1.106105847837786 0.12295231518722236
-1.164470439263214 0.14958673649678894
-1.222835030688642 0.17622115780635553
-1.4854756921030678 0.17622115780635553
-1.5730225792412098 0.1895383684611388
-1.5730225792412098 0.1895383684611388
-1.4562933963903537 0.1895383684611388
-1.3687465092522118 0.16290394715157222
-1.5146579878157818 0.08300068322287249
-1.5730225792412098 0.056366261913305904
-1.5438402835284957 0.09631789387765577
-1.5146579878157818 0.12295231518722236
-1.4271111006776398 0.12295231518722236
-1.3687465092522118 0.0696834725680892
-1.4271111006776398 0.01641462994895603
-1.6313871706666376 0.02973184060373932
-1.7481163535174935 -0.03685421267017713
-1.6605694663793515 -0.050171423324960426
-1.6022048749539237 0.056366261913305904
-1.6022048749539237 0.10963510453243906
-1.6022048749539237 0.14958673649678894
-1.5730225792412098 0.14958673649678894
-1.5438402835284957 0.12295231518722236
-1.5438402835284957 0.08300068322287249
-1.4271111006776398 0.08300068322287249
-1.3687465092522118 0.10963510453243906
-1.3395642135394978 0.04304905125852261
-1.4562933963903537 -0.06348863397974372
-1.5438402835284957 -0.050171423324960426
-1.6605694663793515 0.02973184060373932
-1.5730225792412098 0.14958673649678894
-1.3395642135394978 0.24280721108027198
-1.193652734975928 0.29607605369940515
-1.2520173264013559 0.29607605369940515
-1.2520173264013559 0.3493448963185383
-1.164470439263214 0.4825170028663712
-0.9310120735615022 0.655640741378554
-0.7559182992852183 0.9086677438194365
-0.4057307507326505 1.0018882184029196
-0.02636090646736881 1.1483775356055357
0.0028213892453451675 1.3747701167368518
-0.08472549789279676 1.800920857689917
-0.14309008931822473 2.4534641797742984
0.11955057209620108 3.1060075018586795
0.46973812064876885 3.6520131387047945
0.8782902606267645 4.03821224769351
0.9366548520521925 4.344508092753525
0.7031964863504807 4.717389991087457
0.44055582493605483 5.2500784172787895
0.46973812064876885 5.769449632815338
0.7615610777759086 6.208917584423186
1.549483062019186 6.461944586864068
2.4541342291133192 6.448627376209285
3.329603100494739 6.02247663525622
4.059160493312588 5.116906310730957
4.029978197599874 3.865088509181327
2.921050960516743 2.6132707076316977
0.7907433734886226 1.6544315404873007
-1.6022048749539237 1.0951086929864027
-2.9154081820260527 0.7754956372716036
-3.2072311391531927 0.5491030561402876
-2.9445904777387666 0.41593094959245475
-2.477673746335343 0.29607605369940515
-1.9232101277937774 0.20285557911592209
-1.7189340578047796 0.10963510453243906
-1.5146579878157818 -0.03685421267017713
-1.3687465092522118 -0.11675747659887688
-1.222835030688642 -0.076805844634527
-1.2520173264013559 -0.14339189790844345
-1.310381917826784 -0.2632467938014931
-1.310381917826784 -0.396418900349326
-1.28119962211407 -0.38310168969454267
-1.28119962211407 -0.31651563642062625
-1.28119962211407 -0.2232951618371432
-1.28119962211407 -0.2366123724919265
-1.1352881435505 -0.32983284707540955
-1.164470439263214 -0.44968774296845915
-1.047741256412358 -0.4763221642780257
-1.28119962211407 -0.43637053231367584
-1.164470439263214 -0.3564672683849761
-1.193652734975928 -0.38310168969454267
-1.076923552125072 -0.4763221642780257
-1.106105847837786 -0.4763221642780257
-1.076923552125072 -0.44968774296845915
-1.076923552125072 -0.4097361110041093
-0.9601943692742162 -0.396418900349326
-0.9018297778487881 -0.4230533216588926
-0.8726474821360742 -0.4097361110041093
-0.8726474821360742 -0.3697844790397594
-1.0185589606996441 -0.3564672683849761
-0.9893766649869301 -0.4230533216588926
-0.8726474821360742 -0.489639374932809
-0.9018297778487881 -0.5029565855875923
-0.8726474821360742 -0.5429082175519422
-1.0185589606996441 -0.6627631134449918
-1.0185589606996441 -0.5961770601710753
-1.047741256412358 -0.5295910068971589
-0.9310120735615022 -0.396418900349326
-0.9310120735615022 -0.3697844790397594
-0.7851005949979323 -0.4230533216588926
-0.7559182992852183 -0.5295910068971589
-0.7851005949979323 -0.5695426388615088
-0.6975537078597903 -0.6494459027902085
-0.6975537078597903 -0.676080324099775
-0.8142828907106463 -0.6893975347545583
-0.9018297778487881 -0.6228114814806419
-0.9018297778487881 -0.5695426388615088
-0.7267360035725043 -0.5961770601710753
-0.6100068207216484 -0.5562254282067255
-0.6391891164343624 -0.5162737962423756
-0.5516422292962204 -0.6094942708258586
-0.5808245250089344 -0.676080324099775
-0.5808245250089344 -0.6494459027902085
-0.6683714121470764 -0.5695426388615088
-0.4932776378707925 -0.5162737962423756
-0.4932776378707925 -0.46300495362324245
-0.37654845501993656 -0.4763221642780257
-0.2890015678817946 -0.5828598495162921
-0.3181838635945086 -0.6361286921354252
-0.4057307507326505 -0.7027147454093416
-0.4932776378707925 -0.676080324099775
-0.4932776378707925 -0.6228114814806419
-0.5224599335835065 -0.6494459027902085
-0.4640953421580785 -0.6228114814806419
-0.4349130464453645 -0.6094942708258586
-0.4640953421580785 -0.5828598495162921
-0.25981927216908063 -0.6893975347545583
-0.02636090646736881 -0.7027147454093416
-0.08472549789279676 -0.6893975347545583
-0.1722723850309387 -0.716031956064125
-0.2890015678817946 -0.676080324099775
-0.23063697645636666 -0.5961770601710753
-0.11390779360551075 -0.5295910068971589
0.061185980670773125 -0.5029565855875923
0.17791516352162903 -0.5029565855875923
0.17791516352162903 -0.4763221642780257
0.11955057209620108 -0.5029565855875923
0.29464434637248493 -0.5562254282067255
0.3821912335106269 -0.5429082175519422
0.44055582493605483 -0.489639374932809
0.3821912335106269 -0.396418900349326
0.3821912335106269 -0.396418900349326
0.46973812064876885 -0.4097361110041093
0.5572850077869108 -0.396418900349326
0.5572850077869108 -0.396418900349326
0.6740141906377667 -0.31651563642062625
0.6156495992123387 -0.2632467938014931
0.5864673034996247 -0.18334352987279334
0.5572850077869108 -0.10344026594409358
0.6740141906377667 0.003097419294172739
0.8199256692013366 0.08300068322287249
0.9950194434776205 0.14958673649678894
1.1117486263284764 0.13626952584200563
1.0242017391903344 0.0696834725680892
0.9074725563394785 0.04304905125852261
0.7907433734886226 0.10963510453243906
0.7323787820631946 0.20285557911592209
0.7323787820631946 0.24280721108027198
0.8199256692013366 0.2561244217350553
0.8491079649140506 0.2561244217350553
0.6156495992123387 0.3227104750089717
0.46973812064876885 0.40261373893767144
0.5572850077869108 0.4425653709020213
0.6740141906377667 0.3892965282828882
0.7615610777759086 0.28275884304462184
0.5572850077869108 0.2561244217350553
0.32382664208519896 0.26944163238983854
0.20709745923434303 0.3493448963185383
0.29464434637248493 0.3493448963185383
0.3821912335106269 0.336027685663755
0.3821912335106269 0.22949000042548867
0.17791516352162903 0.17622115780635553
0.061185980670773125 0.2161727897707054
-0.05554320218008279 0.26944163238983854
0.0028213892453451675 0.3093932643541884
0.14873286780891506 0.3093932643541884
0.14873286780891506 0.24280721108027198
0.061185980670773125 0.1895383684611388
-0.05554320218008279 0.20285557911592209
-0.23063697645636666 0.2561244217350553
-0.2014546807436527 0.3227104750089717
-0.08472549789279676 0.3493448963185383
0.061185980670773125 0.3227104750089717
0.061185980670773125 0.26944163238983854
-0.1722723850309387 0.14958673649678894
-0.08472549789279676 0.02973184060373932
-0.14309008931822473 0.01641462994895603
-0.14309008931822473 0.13626952584200563
-0.23063697645636666 0.2161727897707054
-0.3181838635945086 0.17622115780635553
-0.3473661593072226 0.16290394715157222
-0.3181838635945086 0.16290394715157222
-0.2890015678817946 0.2161727897707054
-0.1722723850309387 0.24280721108027198
-0.08472549789279676 0.22949000042548867
-0.1722723850309387 0.2161727897707054
-0.14309008931822473 0.2161727897707054
-0.25981927216908063 0.2161727897707054
-0.2014546807436527 0.1895383684611388
-0.08472549789279676 0.08300068322287249
-0.08472549789279676 0.01641462994895603
-0.1722723850309387 0.003097419294172739
-0.37654845501993656 0.04304905125852261
-0.4932776378707925 0.08300068322287249
-0.3181838635945086 0.14958673649678894
-0.14309008931822473 0.22949000042548867
-0.11390779360551075 0.3093932643541884
-0.05554320218008279 0.2561244217350553
-0.1722723850309387 0.12295231518722236
-0.2890015678817946 -0.010219791360610552
-0.1722723850309387 -0.06348863397974372
-0.1722723850309387 -0.050171423324960426
-0.2014546807436527 0.056366261913305904
-0.3181838635945086 0.0696834725680892
-0.3473661593072226 0.02973184060373932
-0.3181838635945086 0.02973184060373932
-0.2014546807436527 0.01641462994895603
-0.11390779360551075 0.04304905125852261
-0.2014546807436527 0.0696834725680892
-0.25981927216908063 0.0696834725680892
-0.3473661593072226 0.02973184060373932
-0.2890015678817946 -0.010219791360610552
-0.2014546807436527 -0.03685421267017713
-0.2014546807436527 0.003097419294172739
-0.2890015678817946 0.0696834725680892
-0.25981927216908063 0.02973184060373932
-0.4640953421580785 -0.010219791360610552
-0.4349130464453645 0.01641462994895603
-0.3181838635945086 0.04304905125852261
-0.14309008931822473 0.0696834725680892
-0.1722723850309387 0.08300068322287249
-0.14309008931822473 0.056366261913305904
-0.25981927216908063 -0.03685421267017713
-0.25981927216908063 -0.023537002015393844
-0.11390779360551075 0.04304905125852261
-0.1722723850309387 0.14958673649678894
-0.14309008931822473 0.12295231518722236
-0.11390779360551075 0.056366261913305904
-0.11390779360551075 0.003097419294172739
-0.11390779360551075 0.01641462994895603
-0.11390779360551075 0.056366261913305904
-0.02636090646736881 0.08300068322287249
-0.02636090646736881 0.04304905125852261
-0.05554320218008279 -0.010219791360610552
-0.08472549789279676 -0.076805844634527
-0.23063697645636666 -0.03685421267017713
-0.1722723850309387 0.02973184060373932
-0.11390779360551075 0.16290394715157222
0.0028213892453451675 0.20285557911592209
-0.08472549789279676 0.14958673649678894
-0.1722723850309387 0.16290394715157222
-0.02636090646736881 0.14958673649678894
0.0903682763834871 0.14958673649678894
0.0903682763834871 0.10963510453243906
-0.05554320218008279 0.003097419294172739
-0.08472549789279676 -0.13007468725366017
-0.25981927216908063 -0.18334352987279334
-0.1722723850309387 -0.03685421267017713
-0.2014546807436527 0.0696834725680892
-0.1722723850309387 0.056366261913305904
-0.11390779360551075 -0.010219791360610552
-0.11390779360551075 -0.03685421267017713
-0.23063697645636666 -0.03685421267017713
-0.25981927216908063 0.003097419294172739
-0.11390779360551075 0.08300068322287249
-0.02636090646736881 0.12295231518722236
-0.11390779360551075 0.13626952584200563
-0.14309008931822473 0.0696834725680892
-0.2890015678817946 0.04304905125852261
-0.23063697645636666 0.003097419294172739
-0.2014546807436527 -0.010219791360610552
-0.23063697645636666 0.02973184060373932
-0.2014546807436527 0.01641462994895603
-0.25981927216908063 -0.010219791360610552
-0.23063697645636666 0.02973184060373932
-0.25981927216908063 0.13626952584200563
-0.2014546807436527 0.16290394715157222
-0.11390779360551075 0.02973184060373932
-0.05554320218008279 -0.06348863397974372
-0.08472549789279676 -0.10344026594409358
-0.3473661593072226 -0.10344026594409358
-0.5516422292962204 -0.023537002015393844
-0.37654845501993656 0.02973184060373932
-0.2014546807436527 0.0696834725680892
-0.1722723850309387 0.09631789387765577
-0.14309008931822473 0.02973184060373932
-0.3181838635945086 -0.010219791360610552
-0.37654845501993656 0.01641462994895603
-0.3473661593072226 0.056366261913305904
-0.23063697645636666 -0.03685421267017713
-0.23063697645636666 -0.076805844634527
-0.2890015678817946 -0.13007468725366017
-0.4057307507326505 -0.13007468725366017
-0.4640953421580785 -0.03685421267017713
-0.37654845501993656 0.056366261913305904
-0.2014546807436527 0.056366261913305904
-0.11390779360551075 0.04304905125852261
-0.1722723850309387 0.04304905125852261
-0.25981927216908063 -0.010219791360610552
-0.1722723850309387 -0.10344026594409358
-0.05554320218008279 -0.10344026594409358
-0.05554320218008279 -0.023537002015393844
-0.1722723850309387 0.02973184060373932
-0.11390779360551075 0.056366261913305904
-0.08472549789279676 0.04304905125852261
-0.08472549789279676 0.13626952584200563
0.0903682763834871 0.22949000042548867
0.14873286780891506 0.22949000042548867
0.17791516352162903 0.2161727897707054
0.236279754947057 0.16290394715157222
0.061185980670773125 0.10963510453243906
0.11955057209620108 0.10963510453243906
0.20709745923434303 0.16290394715157222
0.32382664208519896 0.20285557911592209
0.26546205065977097 0.16290394715157222
0.17791516352162903 0.12295231518722236
-0.02636090646736881 0.14958673649678894
-0.05554320218008279 0.14958673649678894
-0.02636090646736881 0.16290394715157222
0.061185980670773125 0.16290394715157222
0.03200368495805914 0.09631789387765577
-0.02636090646736881 0.08300068322287249
-0.11390779360551075 0.0696834725680892
-0.14309008931822473 0.12295231518722236
-0.05554320218008279 0.2161727897707054
0.03200368495805914 0.24280721108027198
0.0903682763834871 0.17622115780635553
0.11955057209620108 0.13626952584200563
0.061185980670773125 0.24280721108027198
-0.2014546807436527 0.336027685663755
0.03200368495805914 0.3892965282828882
0.29464434637248493 0.29607605369940515
0.3821912335106269 0.08300068322287249
0.26546205065977097 -0.076805844634527
0.0028213892453451675 -0.15670910856322676
-0.25981927216908063 -0.11675747659887688
-0.4057307507326505 0.003097419294172739
-0.3181838635945086 0.09631789387765577
-0.37654845501993656 0.13626952584200563
-0.25981927216908063 0.10963510453243906
-0.25981927216908063 0.04304905125852261
-0.25981927216908063 0.02973184060373932
-0.11390779360551075 0.01641462994895603
-0.08472549789279676 0.01641462994895603
-0.11390779360551075 -0.06348863397974372
-0.3181838635945086 -0.14339189790844345
-0.4057307507326505 -0.09012305528931029
-0.4932776378707925 -0.010219791360610552
-0.4057307507326505 0.0696834725680892
-0.2014546807436527 0.12295231518722236
-0.25981927216908063 0.04304905125852261
-0.3181838635945086 -0.06348863397974372
-0.3181838635945086 -0.10344026594409358
-0.3473661593072226 -0.06348863397974372
-0.4640953421580785 0.01641462994895603
-0.23063697645636666 0.04304905125852261
-0.25981927216908063 0.04304905125852261
-0.23063697645636666 -0.023537002015393844
-0.25981927216908063 -0.03685421267017713
-0.4349130464453645 0.01641462994895603
-0.2890015678817946 0.056366261913305904
-0.1722723850309387 0.04304905125852261
-0.11390779360551075 -0.010219791360610552
-0.2014546807436527 -0.03685421267017713
-0.3473661593072226 0.003097419294172739
-0.4057307507326505 0.04304905125852261
-0.23063697645636666 0.08300068322287249
-0.02636090646736881 0.13626952584200563
0.14873286780891506 0.20285557911592209
0.03200368495805914 0.29607605369940515
0.0028213892453451675 0.40261373893767144
0.17791516352162903 0.5491030561402876
0.46973812064876885 0.7222267946524704
0.7323787820631946 0.9619365864385697
1.1117486263284764 1.1750119569151023
1.3743892877429023 1.4014045380464182
1.4619361748810442 1.6544315404873007
1.3743892877429023 2.01399622816645
1.4911184705937581 2.5999534969769145
1.8121237234336118 3.132641923168246
2.1331289762734658 3.532158242811745
2.5708634119641753 3.9449917731100266
2.658410299102317 4.3045564607891755
2.6000457076768893 4.704072780432674
2.6875925948150314 5.090271889421389
2.833504073378601 5.503105419719672
3.096144734793027 5.929256160672737
3.5338791704837367 6.222234795077969
4.234254267588872 6.3287724803162355
5.02217625183215 6.2621864270423195
5.7225513489372855 5.915938950017954
6.306197263191565 5.196809574659656
6.101921193202567 4.091481090312643
5.197270026108433 2.94620097400128
3.475514579058309 2.0539478601307994
1.3160246963174742 1.4946250126299012
-0.5808245250089344 1.1084259036411859
-1.5438402835284957 0.7754956372716036
-1.8064809449429216 0.5357858454855043
-1.7481163535174935 0.3626621069733216
